onset	BVP
1.62818098068237	47.0777
1.64380097389221	44.16861
1.65943098068237	41.46437
1.67505097389221	39.02303
1.69068098068237	36.6523
1.70630097389221	34.0024
1.72193098068237	30.70703
1.73756098747253	26.5452
1.75318098068237	21.51843
1.76881098747253	15.80529
1.78443098068237	9.812103
1.80006098747253	4.014236
1.81568098068237	-1.130745
1.83131098747253	-5.326775
1.8469409942627	-8.55986
1.86256098747253	-11.11863
1.8781909942627	-13.63663
1.89381098747253	-16.9158
1.9094409942627	-21.85337
1.92507100105286	-29.16665
1.9406909942627	-39.18269
1.95632100105286	-51.6337
1.9719409942627	-65.57305
1.98757100105286	-79.40491
2.0031909942627	-91.21629
2.01882100105286	-99.19831
2.03445100784302	-102.1266
2.05007100105286	-99.6535
2.06570100784302	-92.35118
2.08132100105286	-81.49538
2.09695100784302	-68.63841
2.11257100105286	-55.19845
2.12820100784302	-42.18791
2.14383101463318	-30.13363
2.15945100784302	-19.19038
2.17508101463318	-9.269379
2.19070100784302	-0.2389107
2.20633101463318	8.000584
2.22195100784302	15.4315
2.23758101463318	21.98251
2.25321102142334	27.60494
2.26883101463318	32.28941
2.28446102142334	36.11076
2.30008101463318	39.17837
2.31571102142334	41.56767
2.33133101463318	43.29504
2.34696102142334	44.37311
2.3625910282135	44.89145
2.37821102142334	45.06795
2.3938410282135	45.21833
2.40946102142334	45.60338
2.4250910282135	46.27388
2.44071102142334	47.00551
2.4563410282135	47.33496
2.47197103500366	46.75449
2.4875910282135	44.88383
2.50322103500366	41.62542
2.5188410282135	37.11249
2.53447103500366	31.61316
2.5500910282135	25.39726
2.56572103500366	18.6786
2.58135104179382	11.59496
2.59697103500366	4.292681
2.61260104179382	-3.084257
2.62822103500366	-10.38264
2.64385104179382	-17.51655
2.65947103500366	-24.49806
2.67510104179382	-31.49726
2.70635104179382	-46.5677
2.72198104858398	-54.97245
2.73760104179382	-63.69198
2.75323104858398	-71.95753
2.76885104179382	-78.57416
2.78448104858398	-82.16788
2.80011105537415	-81.61324
2.81573104858398	-76.41161
2.83136105537415	-66.94426
2.84698104858398	-54.36817
2.86261105537415	-40.22347
2.87823104858398	-25.95685
2.89386105537415	-12.54861
2.90949106216431	-0.3821945
2.92511105537415	10.5421
2.94074106216431	20.34691
2.95636105537415	28.98551
2.97199106216431	36.25213
2.98761105537415	41.83564
3.00324106216431	45.59666
3.01887106895447	47.60511
3.03449106216431	48.18778
3.05012106895447	47.76896
3.06574106216431	46.72739
3.08137106895447	45.32972
3.09699106216431	43.72044
3.11262106895447	42.01257
3.12825107574463	40.31687
3.14387106895447	38.7497
3.15950107574463	37.3457
3.17512106895447	35.96934
3.19075107574463	34.34532
3.20637106895447	32.10536
3.22200107574463	28.97102
3.23763108253479	24.87958
3.25325107574463	20.01063
3.26888108253479	14.72511
3.28450107574463	9.4347
3.30013108253479	4.431915
3.31575107574463	-0.1581497
3.33138108253479	-4.408737
3.34701108932495	-8.490265
3.36263108253479	-12.58107
3.37826108932495	-16.74652
3.39388108253479	-20.95471
3.40951108932495	-25.11264
3.42513108253479	-29.16548
3.44076108932495	-33.17339
3.45639109611511	-37.35045
3.47201108932495	-41.99353
3.48764109611511	-47.39618
3.50326108932495	-53.65216
3.51889109611511	-60.53468
3.53451108932495	-67.45744
3.55014109611511	-73.49606
3.56577110290527	-77.58449
3.58139109611511	-78.76852
3.59702110290527	-76.4566
3.61264109611511	-70.57547
3.62827110290527	-61.59799
3.64389109611511	-50.44261
3.65952110290527	-38.20297
3.67515110969543	-25.91264
3.69077110290527	-14.261
3.70640110969543	-3.564224
3.72202110290527	6.167343
3.73765110969543	15.01208
3.75327110290527	22.91238
3.76890110969543	29.62816
3.78453087806702	34.82008
3.80015110969543	38.26064
3.81578087806702	40.00591
3.83140110969543	40.44284
3.84703087806702	40.1113
3.86265110969543	39.47789
3.87828087806702	38.79028
3.89391088485718	38.03439
3.90953087806702	37.09225
3.92516088485718	35.87633
3.94078087806702	34.44093
3.97203087806702	31.21487
3.98766088485718	29.30017
4.00329089164734	26.88193
4.01891088485718	23.73732
4.03454089164734	19.80579
4.05016088485718	15.25346
4.06579089164734	10.42731
4.08141088485718	5.688477
4.09704089164734	1.281113
4.1126708984375	-2.768295
4.12829089164734	-6.604294
4.1439208984375	-10.4738
4.15954089164734	-14.57037
4.1751708984375	-18.95982
4.19079089164734	-23.54561
4.2064208984375	-28.09195
4.22205090522766	-32.36391
4.2376708984375	-36.23094
4.25330090522766	-39.74925
4.2689208984375	-43.17653
4.28455090522766	-46.89793
4.3001708984375	-51.29852
4.31580090522766	-56.5773
4.33143091201782	-62.54594
4.34705090522766	-68.51288
4.36268091201782	-73.37743
4.37830090522766	-75.86768
4.39393091201782	-74.94788
4.40955090522766	-70.15714
4.42518091201782	-61.83594
4.44081091880798	-51.00645
4.45643091201782	-39.05548
4.47206091880798	-27.30939
4.48768091201782	-16.66168
4.50331091880798	-7.460052
4.51894092559814	0.4084167
4.53456091880798	7.26149
4.55019092559814	13.36737
4.56581091880798	18.80881
4.58144092559814	23.51553
4.59706091880798	27.40294
4.61269092559814	30.53522
4.62832093238831	33.15527
4.64394092559814	35.60632
4.65957093238831	38.1528
4.67519092559814	40.84741
4.69082093238831	43.44009
4.70644092559814	45.53909
4.72207093238831	46.73251
4.73770093917847	46.78249
4.75332093238831	45.7028
4.76895093917847	43.72144
4.78457093238831	41.14528
4.80020093917847	38.2514
4.81582093238831	35.18018
4.83145093917847	31.92619
4.84708094596863	28.3821
4.86270093917847	24.43141
4.87833094596863	20.00859
4.89395093917847	15.13835
4.90958094596863	9.890564
4.92520093917847	4.38118
4.94083094596863	-1.29715
4.95646095275879	-7.046616
4.97208094596863	-12.76923
4.98771095275879	-18.31351
5.00333094596863	-23.53265
5.03458094596863	-32.55354
5.05021095275879	-36.48071
5.06584095954895	-40.36502
5.08146095275879	-44.55174
5.09709095954895	-49.26086
5.11271095275879	-54.35278
5.12834095954895	-59.24413
5.14396095275879	-62.92026
5.15959095954895	-64.23409
5.17522096633911	-62.21866
5.19084095954895	-56.52296
5.20647096633911	-47.49724
5.22209095954895	-36.13078
5.23772096633911	-23.70142
5.25334095954895	-11.33456
5.26897096633911	0.2408752
5.28460097312927	10.71976
5.30022096633911	20.06076
5.31585097312927	28.24399
5.33147096633911	35.16319
5.34710097312927	40.63942
5.36272096633911	44.60339
5.37835097312927	47.18121
5.39398097991943	48.76003
5.40960097312927	49.79947
5.42523097991943	50.67131
5.44085097312927	51.49992
5.45648097991943	52.12914
5.47210097312927	52.23837
5.48773097991943	51.55101
5.50336098670959	49.98962
5.51898097991943	47.74355
5.53461098670959	45.20508
5.55023097991943	42.73207
5.56586098670959	40.46002
5.58148097991943	38.20862
5.59711098670959	35.53256
5.61274099349976	31.93196
5.62836098670959	27.13269
5.64399099349976	21.21762
5.65961098670959	14.63387
5.67524099349976	8.005341
5.69086098670959	1.881454
5.70649099349976	-3.532913
5.72212100028992	-8.44046
5.73774099349976	-13.37445
5.75337100028992	-18.96513
5.76899099349976	-25.64694
5.78462100028992	-33.51125
5.80024099349976	-42.28645
5.81587100028992	-51.49989
5.83150100708008	-60.79843
5.84712100028992	-70.08324
5.86275100708008	-79.46793
5.87837100028992	-89.02679
5.89400100708008	-98.44691
5.90962100028992	-106.8944
5.92525100708008	-113.1784
5.94088101387024	-116.1765
5.95650100708008	-115.1459
5.97213101387024	-109.6542
5.98775100708008	-99.27994
6.00338101387024	-83.43378
6.01900100708008	-61.67944
6.03463101387024	-34.51698
6.0502610206604	-4.057327
6.06588101387024	26.04915
6.0815110206604	51.7399
6.09713101387024	70.16963
6.1127610206604	80.92236
6.12838101387024	86.04784
6.1440110206604	88.75969
6.15964102745056	91.66919
6.1752610206604	95.58934
6.19089102745056	99.40335
6.2065110206604	100.9388
6.22214102745056	98.02707
6.2377610206604	89.13242
6.25339102745056	73.42142
6.26902103424072	50.68457
6.28464102745056	21.38925
6.30027103424072	-13.04005
6.31589102745056	-50.10509
6.33152103424072	-86.77531
6.34714102745056	-120.4105
6.36277103424072	-149.5538
6.37840104103088	-174.1828
6.39402103424072	-195.236
6.40965104103088	-213.7702
6.42527103424072	-230.2385
6.44090104103088	-244.2597
6.45652103424072	-254.7525
6.47215104103088	-260.1462
6.48778104782104	-258.5641
6.50340104103088	-248.1275
6.51903104782104	-227.514
6.53465104103088	-196.8068
6.55028104782104	-158.1908
6.56590104103088	-115.8308
6.58153104782104	-74.8201
6.59716105461121	-39.29856
6.61278104782104	-11.00634
6.62841105461121	11.25631
6.64403104782104	30.76686
6.65966105461121	51.20346
6.67528104782104	74.93954
6.69091105461121	102.0571
6.70654106140137	130.5261
6.72216105461121	157.3999
6.73779106140137	180.2934
6.75341105461121	198.4954
6.76904106140137	213.0947
6.78467106819153	226.1561
6.80029106140137	239.6801
6.81592106819153	254.6626
6.83154106140137	270.7475
6.84717106819153	286.2973
6.86279106140137	298.9182
6.87842106819153	306.3143
6.89405107498169	307.1702
6.90967106819153	301.8933
6.92530107498169	292.582
6.94092106819153	282.2087
6.95655107498169	273.1776
6.97217106819153	266.1001
6.98780107498169	259.4971
7.00343108177185	250.7096
7.01905107498169	237.6286
7.03468108177185	220.1149
7.05030107498169	200.2322
7.06593108177185	180.9378
7.08155107498169	164.0315
7.09718108177185	148.9363
7.11281108856201	133.0728
7.12843108177185	113.7987
7.14406108856201	90.25024
7.15968108177185	64.09612
7.17531108856201	38.50486
7.19093108177185	16.24121
7.20656108856201	-1.873379
7.22219109535217	-17.13381
7.23781108856201	-31.92101
7.25344109535217	-48.13962
7.26906108856201	-66.14976
7.28469109535217	-84.83665
7.30031108856201	-102.4018
7.31594109535217	-117.3871
7.33157110214233	-129.2356
7.34719109535217	-138.176
7.36282110214233	-144.6549
7.37844109535217	-148.8206
7.39407110214233	-150.3641
7.40969109535217	-148.7729
7.42532110214233	-143.755
7.4409511089325	-135.5775
7.45657110214233	-125.1112
7.4722011089325	-113.6279
7.48782110214233	-102.4078
7.5034511089325	-92.45032
7.51907110214233	-84.23282
7.5347011089325	-77.75345
7.55033087730408	-72.6709
7.5659511089325	-68.51288
7.58158087730408	-64.85403
7.5972011089325	-61.4245
7.61283087730408	-58.151
7.6284511089325	-55.15768
7.64408087730408	-52.78494
7.65971088409424	-51.4902
7.67533087730408	-51.71359
7.69096088409424	-53.65741
7.70658087730408	-57.09079
7.72221088409424	-61.41025
7.73783087730408	-65.79645
7.75346088409424	-69.53253
7.7690908908844	-72.26968
7.78471088409424	-74.14218
7.8003408908844	-75.60245
7.81596088409424	-77.11075
7.8315908908844	-78.7836
7.84721088409424	-80.25214
7.8628408908844	-80.73047
7.87847089767456	-79.32578
7.8940908908844	-75.50064
7.90972089767456	-69.41852
7.9253408908844	-62.19672
7.94097089767456	-55.77948
7.9565908908844	-52.56696
7.97222089767456	-54.74594
7.98785090446472	-63.44891
8.00347089767456	-78.17017
8.01910090446472	-96.50092
8.03472089767456	-114.4244
8.05035090446472	-127.0952
8.06597089767456	-130.1829
8.08160090446472	-121.2335
8.09723091125488	-100.7926
8.11285090446472	-72.47318
8.12848091125488	-41.92313
8.14410090446472	-14.99567
8.15973091125488	4.074707
8.17535090446472	13.75513
8.19098091125488	15.07468
8.20661091804504	10.5975
8.22223091125488	3.153534
8.23786091804504	-4.96875
8.25348091125488	-12.16214
8.26911091804504	-17.12854
8.28473091125488	-18.6022
8.30036091804504	-15.46445
8.31599092483521	-7.242828
8.33161091804504	5.429169
8.34724092483521	20.86838
8.36286091804504	36.94653
8.37849092483521	51.88022
8.39411091804504	64.73834
8.40974092483521	75.4231
8.42537093162537	84.28671
8.44099092483521	91.79965
8.45662093162537	98.46454
8.47224092483521	104.9714
8.48787093162537	112.354
8.50349092483521	121.7847
8.51912093162537	134.0326
8.53475093841553	148.8729
8.55037093162537	164.854
8.56600093841553	179.6805
8.58162093162537	191.0597
8.59725093841553	197.5732
8.61287093162537	199.1353
8.62850093841553	196.8262
8.64413094520569	192.2716
8.65975093841553	186.9665
8.67538094520569	181.8729
8.69100093841553	177.1655
8.70663094520569	172.1309
8.72225093841553	165.0944
8.73788094520569	153.5548
8.75351095199585	134.6092
8.76913094520569	105.929
8.78476095199585	66.92896
8.80038094520569	19.45657
8.81601095199585	-32.60477
8.83163094520569	-84.79987
8.84726095199585	-133.8414
8.86289095878601	-178.5837
8.87851095199585	-219.7885
8.89414095878601	-258.7726
8.90976095199585	-295.9897
8.92539095878601	-330.2976
8.94101095199585	-359.4425
8.95664095878601	-381.227
8.97227096557617	-394.7063
8.98789095878601	-400.651
9.00352096557617	-401.0529
9.01914095878601	-398.208
9.03477096557617	-393.7616
9.05039095878601	-388.0757
9.06602096557617	-380.3392
9.08165097236633	-368.8734
9.09727096557617	-351.8534
9.11290097236633	-327.9142
9.12852096557617	-296.5628
9.14415097236633	-258.142
9.15977096557617	-213.5134
9.17540097236633	-163.7693
9.19103097915649	-110.3191
9.20665097236633	-55.28821
9.22228097915649	-1.808563
9.23790097236633	46.50809
9.25353097915649	86.71291
9.26915097236633	117.6523
9.28478097915649	140.5508
9.30041098594666	158.2722
9.31603097915649	173.6685
9.33166098594666	187.9562
9.34728097915649	200.0609
9.36291098594666	207.3338
9.37854099273682	207.1013
9.39416098594666	198.1266
9.40979099273682	181.1736
9.42541098594666	158.5956
9.44104099273682	133.3763
9.45666098594666	108.2641
9.47229099273682	85.47477
9.48792099952698	66.63773
9.50354099273682	52.94861
9.51917099952698	45.2262
9.53479099273682	43.89452
9.55042099952698	49.18981
9.56604099273682	61.334
9.58167099952698	81.05044
9.59730100631714	109.3996
9.61292099952698	147.1141
9.62855100631714	193.248
9.64417099952698	243.8098
9.65980100631714	291.4443
9.67542099952698	326.7585
9.69105100631714	341.2849
9.7066810131073	330.6807
9.72230100631714	296.5859
9.7379310131073	246.1331
9.75355100631714	189.1612
9.7691810131073	134.5215
9.78480100631714	87.43407
9.8004310131073	49.04753
9.81606101989746	17.93732
9.8316810131073	-7.764122
9.84731101989746	-29.09499
9.8629310131073	-46.46114
9.87856101989746	-60.62017
9.8941810131073	-73.39622
9.90981101989746	-87.2268
9.92544102668762	-103.7825
9.94106101989746	-122.4636
9.95669102668762	-140.0523
9.97231101989746	-151.6258
9.98794102668762	-152.6334
10.0035610198975	-140.901
10.0191910266876	-117.7061
10.0348210334778	-87.34708
10.0504410266876	-55.72807
10.0660710334778	-28.43442
10.0816910266876	-9.186714
10.0973210334778	0.8661804
10.1129410266876	2.862694
10.1285710334778	-0.624588
10.1442010402679	-6.688614
10.1598210334778	-12.99072
10.1754510402679	-18.16645
10.1910710334778	-21.71151
10.2067010402679	-23.56988
10.2223210334778	-23.72736
10.2379510402679	-22.02642
10.2535810470581	-18.38287
10.2692010402679	-13.03306
10.2848310470581	-6.727951
10.3004510402679	-0.6276398
10.3160810470581	4.105759
10.3317010402679	6.71582
10.3473310470581	7.176544
10.3629610538483	6.096413
10.3785810470581	4.425827
10.3942110538483	2.960999
10.4098310470581	2.069962
10.4254610538483	1.559204
10.4410810470581	0.8807526
10.4567110538483	-0.542572
10.4723410606384	-2.990189
10.4879610538483	-6.309387
10.5035910606384	-9.868546
10.5192110538483	-12.76431
10.5348410606384	-14.00603
10.5504610538483	-12.81371
10.5660910606384	-8.840439
10.5817210674286	-2.334
10.5973410606384	5.877136
10.6129710674286	14.5863
10.6285910606384	22.57103
10.6442210674286	28.96947
10.6598410606384	33.50478
10.6754710674286	36.42877
10.6911010742188	38.24338
10.7067210674286	39.35364
10.7223510742188	39.86867
10.7379710674286	39.62453
10.7536010742188	38.46585
10.7692210674286	36.4686
10.7848510742188	34.11455
10.8004810810089	32.09814
10.8161010742188	30.98895
10.8317310810089	30.91161
10.8473510742188	31.4688
10.8629810810089	31.90053
10.8786010742188	31.4567
10.8942310810089	29.75728
10.9098610877991	26.89964
10.9254810810089	23.36853
10.9411110877991	19.73874
10.9567310810089	16.37074
10.9723610877991	13.28183
10.9879810810089	10.181
11.0036110877991	6.68631
11.0192410945892	2.513916
11.0348610877991	-2.411362
11.0504910945892	-8.002716
11.0661110877991	-14.05463
11.0817410945892	-20.25429
11.0973610877991	-26.08058
11.1129910945892	-30.74258
11.1286211013794	-33.23691
11.1442410945892	-32.59418
11.1598711013794	-28.27419
11.1754910945892	-20.45251
11.1911211013794	-10.0882
11.2067410945892	1.365311
11.2223711013794	12.47609
11.2380011081696	22.26083
11.2536211013794	30.36224
11.2692511081696	36.83197
11.2848711013794	41.76706
11.3005011081696	45.04353
11.3161211013794	46.2973
11.3317511081696	45.21944
11.3473808765411	41.91107
11.3630011081696	37.01973
11.3786308765411	31.55197
11.3942511081696	26.47308
11.4098808765411	22.22452
11.4255011081696	18.54457
11.4411308765411	14.63654
11.4567608833313	9.623566
11.4723808765411	2.983139
11.4880108833313	-5.17897
11.5036308765411	-14.22487
11.5192608833313	-23.30856
11.5348808765411	-31.77869
11.5505108833313	-39.34537
11.5661408901215	-46.1382
11.5817608833313	-52.4911
11.5973908901215	-58.75879
11.6130108833313	-65.24986
11.6286408901215	-72.15414
11.6442708969116	-79.55055
11.6598908901215	-87.34976
11.6755208969116	-95.10179
11.6911408901215	-101.9212
11.7067708969116	-106.5676
11.7223908901215	-107.7433
11.7380208969116	-104.5644
11.7536509037018	-96.93254
11.7692708969116	-85.57425
11.7849009037018	-71.84351
11.8005208969116	-57.22247
11.8161509037018	-42.89072
11.8317708969116	-29.52878
11.8474009037018	-17.38661
11.8630309104919	-6.475021
11.8786509037018	3.151947
11.8942809104919	11.30249
11.9099009037018	17.71384
11.9255309104919	22.20985
11.9411509037018	24.85405
11.9567809104919	26.03311
11.9724109172821	26.33209
11.9880309104919	26.3764
12.0036609172821	26.58212
12.0192809104919	26.97853
12.0349109172821	27.20996
12.0505309104919	26.72484
12.0661609172821	25.01962
12.0817909240723	21.94229
12.0974109172821	17.76865
12.1130409240723	13.05508
12.1286609172821	8.387573
12.1442909240723	4.112885
12.1599109172821	0.2010498
12.1755409240723	-3.701294
12.1911709308624	-8.034912
12.2067909240723	-13.17575
12.2224209308624	-19.31308
12.2380409240723	-26.41934
12.2536709308624	-34.28543
12.2692909240723	-42.42551
12.2849209308624	-50.05338
12.3005509376526	-56.07892
12.3161709308624	-59.25079
12.3318009376526	-58.49765
12.3474209308624	-53.30499
12.3630509376526	-43.94644
12.3786709308624	-31.47076
12.3943009376526	-17.42691
12.4099309444427	-3.398041
12.4255509376526	9.411316
12.4411809444427	20.35773
12.4568009376526	29.32343
12.4724309444427	36.44754
12.4880509376526	41.8811
12.5036809444427	45.68661
12.5193109512329	47.86557
12.5349309444427	48.48233
12.5505609512329	47.80811
12.5661809444427	46.31381
12.5818109512329	44.56094
12.5974309444427	43.03024
12.6130609512329	41.92349
12.6286909580231	41.07602
12.6443109512329	40.08447
12.6599409580231	38.45007
12.6755609512329	35.84241
12.6911909580231	32.2298
12.7068109512329	27.85049
12.7224409580231	23.12936
12.7380709648132	18.47308
12.7536909580231	14.13275
12.7693209648132	10.16309
12.7849409580231	6.486969
12.8005709648132	2.955566
12.8161909580231	-0.539856
12.8318209648132	-4.134583
12.8474509716034	-8.012512
12.8630709648132	-12.39233
12.8787009716034	-17.40387
12.8943209648132	-22.84964
12.9099509716034	-28.02628
12.9255709648132	-31.73572
12.9412009716034	-32.59265
12.9568309783936	-29.49799
12.9724509716034	-22.05994
12.9880809783936	-10.83847
13.0037009716034	2.87738
13.0193309783936	17.46887
13.0349509716034	31.52383
13.0505809783936	44.17181
13.0662109851837	55.11905
13.0818309783936	64.37527
13.0974609851837	72.01123
13.1130809783936	77.94757
13.1287109851837	82.00641
13.1443309783936	84.10889
13.1599609851837	84.45087
13.1755909919739	83.54218
13.1912109851837	82.11157
13.2068409919739	80.85669
13.2224609851837	80.21106
13.2380909919739	80.2489
13.2537109851837	80.71579
13.2693409919739	81.15179
13.284970998764	81.12952
13.3005909919739	80.33002
13.316220998764	78.6394
13.3318409919739	76.09894
13.347470998764	72.85754
13.3630909919739	69.08542
13.378720998764	64.95419
13.3943510055542	60.57681
13.409970998764	56.00494
13.4256010055542	51.22992
13.441220998764	46.15463
13.4568510055542	40.64529
13.472470998764	34.54288
13.4881010055542	27.76022
13.5037310123444	20.36194
13.5193510055542	12.68674
13.5349810123444	5.416321
13.5506010055542	-0.4436951
13.5662310123444	-3.769104
13.5818510055542	-3.627869
13.5974810123444	0.4290771
13.6131110191345	8.097961
13.6287310123444	18.38846
13.6443610191345	29.88416
13.6599810123444	41.17072
13.6756110191345	51.09735
13.6912310123444	58.92361
13.7068610191345	64.21017
13.7224910259247	66.65128
13.7381110191345	66.04504
13.7537410259247	62.40799
13.7693610191345	56.20676
13.7849910259247	48.42651
13.8006210327148	40.37009
13.8162410259247	33.25452
13.8318710327148	27.7905
13.8474910259247	24.00919
13.8631210327148	21.36203
13.8787410259247	19.2225
13.8943710327148	17.18335
13.910001039505	15.28369
13.9256210327148	13.83954
13.941251039505	13.16049
13.9568710327148	13.28456
13.972501039505	13.88725
13.9881210327148	14.4894
14.003751039505	14.6841
14.0193810462952	14.36342
14.035001039505	13.7334
14.0506310462952	13.26311
14.066251039505	13.4747
14.0818810462952	14.84689
14.097501039505	17.75063
14.1131310462952	22.36467
14.1287610530853	28.61719
14.1443810462952	36.12275
14.1600110530853	44.29061
14.1756310462952	52.50065
14.1912610530853	60.32335
14.2068810462952	67.605
14.2225110530853	74.35956
14.2381410598755	80.47285
14.2537610530853	85.27619
14.2693910598755	87.3935
14.2850110530853	84.79686
14.3006410598755	75.23119
14.3162610530853	56.86073
14.3318910598755	28.80378
14.3475210666656	-8.515075
14.3631410598755	-53.4065
14.3787710666656	-103.2655
14.3943910598755	-155.1411
14.4100210666656	-206.2824
14.4256410598755	-254.5674
14.4412710666656	-298.6993
14.4569010734558	-338.1313
14.4725210666656	-372.8412
14.4881510734558	-403.0106
14.5037710666656	-428.7177
14.5194010734558	-449.6827
14.5350210666656	-465.038
14.5506510734558	-473.243
14.566281080246	-472.2844
14.5819010734558	-460.144
14.597531080246	-435.5338
14.6131510734558	-398.5805
14.628781080246	-351.2314
14.6444010734558	-297.0797
14.660031080246	-240.7183
14.6756610870361	-186.7401
14.691281080246	-138.8391
14.7069110870361	-99.26311
14.722531080246	-68.67296
14.7381610870361	-46.32359
14.753781080246	-30.42092
14.7694110870361	-18.48305
14.7850410938263	-7.784813
14.8006610870361	4.117649
14.8162910938263	18.84914
14.8319110870361	36.77522
14.8475410938263	56.93974
14.8631610870361	77.51521
14.8787910938263	96.53313
14.8944211006165	112.6343
14.9100410938263	125.4527
14.9256711006165	135.4536
14.9412910938263	143.3647
14.9569211006165	149.6561
14.9725410938263	154.322
14.9881711006165	157.1424
15.0038011074066	158.1284
15.0194211006165	157.8082
15.0350511074066	157.1471
15.0506711006165	157.115
15.0663011074066	158.151
15.0819211006165	159.9221
15.0975511074066	161.4619
15.1131811141968	161.6121
15.1288011074066	159.4962
15.1444311141968	154.8129
15.1600511074066	147.7767
15.1756811141968	138.8923
15.1913011074066	128.6627
15.2069311141968	117.4244
15.2225608825684	105.3228
15.2381811141968	92.42932
15.2538108825684	78.75427
15.2694311141968	64.31116
15.2850608825684	49.07178
15.3006811141968	32.98718
15.3163108825684	16.11349
15.3319408893585	-1.160522
15.3475608825684	-17.96503
15.3631908893585	-32.97244
15.3788108825684	-44.66455
15.3944408893585	-51.77542
15.4100608825684	-53.7482
15.4256908893585	-50.85648
15.4413208961487	-44.06012
15.4569408893585	-34.60532
15.4725708961487	-23.60876
15.4881908893585	-11.86154
15.5038208961487	0.1247864
15.5194408893585	11.84622
15.5350708961487	22.61642
15.5507009029388	31.56134
15.5663208961487	37.84198
15.5819509029388	40.991
15.5975708961487	41.18628
15.6132009029388	39.22598
15.6288208961487	36.26984
15.6444509029388	33.42126
15.660080909729	31.33606
15.6757009029388	30.03528
15.691330909729	29.0285
15.7069509029388	27.6105
15.722580909729	25.22574
15.7382009029388	21.73895
15.753830909729	17.39087
15.7694609165192	12.64316
15.785080909729	7.839661
15.8007109165192	3.036407
15.816330909729	-2.055481
15.8319609165192	-7.888916
15.847580909729	-14.84415
15.8632109165192	-23.06839
15.8788409233093	-32.41806
15.8944609165192	-42.48657
15.9100909233093	-52.7063
15.9257109165192	-62.34616
15.9413409233093	-70.49973
15.9569609165192	-76.14151
15.9725909233093	-78.22836
15.9882209300995	-76.01697
16.0038409233093	-69.3082
16.0194709300995	-58.61142
16.0350909233093	-45.00684
16.0507209300995	-29.8266
16.0663409233093	-14.23276
16.0819709300995	1.037628
16.0976009368896	15.65381
16.1132209300995	29.46951
16.1288509368896	42.20203
16.1444709300995	53.26276
16.1601009368896	61.89026
16.1757209300995	67.43878
16.1913509368896	69.71631
16.2069809436798	69.18243
16.2226009368896	66.75433
16.2382309436798	63.48572
16.2538509368896	60.16809
16.2694809436798	57.12097
16.2851009368896	54.19196
16.3007309436798	51.04681
16.31636095047	47.4281
16.3319809436798	43.315
16.34761095047	38.89569
16.3632309436798	34.41504
16.37886095047	29.99219
16.3944809436798	25.59497
16.41011095047	21.03326
16.4257409572601	16.10706
16.44136095047	10.60339
16.4569909572601	4.388977
16.47261095047	-2.637146
16.4882409572601	-10.49799
16.5038709640503	-19.05835
16.5194909572601	-27.89795
16.5351209640503	-36.25574
16.5507409572601	-43.08545
16.5663709640503	-47.26935
16.5819909572601	-47.89001
16.5976209640503	-44.51123
16.6132509708405	-37.33868
16.6288709640503	-27.09149
16.6445009708405	-14.83447
16.6601209640503	-1.67395
16.6757509708405	11.42841
16.6913709640503	23.74603
16.7070009708405	34.73096
16.7226309776306	43.91571
16.7382509708405	50.85376
16.7538809776306	55.14502
16.7695009708405	56.55798
16.7851309776306	55.15326
16.8007509708405	51.35822
16.8163809776306	45.89172
16.8320109844208	39.58868
16.8476309776306	33.23236
16.8632609844208	27.33289
16.8788809776306	22.10486
16.8945109844208	17.47943
16.9101309776306	13.26141
16.9257609844208	9.226868
16.9413909912109	5.226074
16.9570109844208	1.20282
16.9726409912109	-2.813904
16.9882609844208	-6.790344
17.0038909912109	-10.71375
17.0195109844208	-14.60278
17.0351409912109	-18.49139
17.0507709980011	-22.45032
17.0663909912109	-26.57666
17.0820209980011	-31.0105
17.0976409912109	-35.95709
17.1132709980011	-41.61914
17.1288909912109	-48.07129
17.1445209980011	-55.11041
17.1601510047913	-62.112
17.1757709980011	-68.02417
17.1914010047913	-71.54315
17.2070209980011	-71.44586
17.2226510047913	-66.93243
17.2382709980011	-57.92883
17.2539010047913	-45.07086
17.2695310115814	-29.53271
17.2851510047913	-12.64124
17.3007810115814	4.440063
17.3164010047913	20.92719
17.3320310115814	36.39758
17.3476510047913	50.63287
17.3632810115814	63.42834
17.3789110183716	74.48053
17.3945310115814	83.44836
17.4101610183716	90.06451
17.4257810115814	94.3446
17.4414110183716	96.6377
17.4570310115814	97.58624
17.4726610183716	97.96356
17.4882910251617	98.49109
17.5039110183716	99.74011
17.5195410251617	102.0779
17.5351610183716	105.6922
17.5507910251617	110.4966
17.5664110183716	116.0713
17.5820410251617	121.6434
17.5976710319519	126.1593
17.6132910251617	128.5053
17.6289210319519	127.7977
17.6445410251617	123.6312
17.6601710319519	116.0903
17.6757910251617	105.6515
17.6914210319519	92.93292
17.7070510387421	78.50351
17.7226710319519	62.80252
17.7383010387421	46.12454
17.7539210319519	28.67368
17.7695510387421	10.57724
17.7851710319519	-7.999115
17.8008010387421	-26.8092
17.8164310455322	-45.37775
17.8320510387421	-62.93936
17.8476810455322	-78.49054
17.8633010387421	-90.95895
17.8789310455322	-99.47189
17.8945510387421	-103.568
17.9101810455322	-103.2924
17.9258110523224	-99.12296
17.9414310455322	-91.79016
17.9570610523224	-82.07013
17.9726810455322	-70.62991
17.9883110523224	-58.07208
18.0039310455322	-44.98273
18.0195610523224	-31.99921
18.0351910591125	-19.78635
18.0508110523224	-8.902069
18.0664410591125	0.3457031
18.0820610523224	7.976563
18.0976910591125	14.27475
18.1133110523224	19.6409
18.1289410591125	24.41803
18.1445710659027	28.89252
18.1601910591125	33.3334
18.1758210659027	38.13913
18.1914410591125	43.81813
18.2070710659027	50.87471
18.2226910591125	59.55464
18.2383210659027	69.67946
18.2539510726929	80.6983
18.2695710659027	91.82083
18.2852010726929	102.308
18.3008210659027	111.6392
18.3164510726929	119.5788
18.3320710659027	126.1655
18.3477010726929	131.6548
18.363331079483	136.379
18.3789510726929	140.5182
18.394581079483	143.8145
18.4102010726929	145.3448
18.425831079483	143.5811
18.4414510726929	136.7889
18.457081079483	123.6271
18.4727110862732	103.7262
18.488331079483	77.95001
18.5039610862732	48.19167
18.519581079483	16.9108
18.5352110862732	-13.44529
18.550831079483	-40.88777
18.5664610862732	-64.15829
18.5820910930634	-82.77966
18.5977110862732	-96.9906
18.6133410930634	-107.552
18.6289610862732	-115.4276
18.6445910930634	-121.4581
18.6602210998535	-126.1829
18.6758410930634	-129.8047
18.6914710998535	-132.4702
18.7070910930634	-134.5144
18.7227210998535	-136.5345
18.7383410930634	-139.1595
18.7539710998535	-142.6797
18.7696011066437	-146.7807
18.7852210998535	-150.626
18.8008511066437	-153.3058
18.8164710998535	-154.3085
18.8321011066437	-153.7306
18.8477210998535	-152.0871
18.8633511066437	-149.8459
18.8789811134338	-147.0703
18.8946011066437	-143.475
18.9102311134338	-138.7916
18.9258511066437	-133.1984
18.9414811134338	-127.4748
18.9571011066437	-122.6066
18.9727311134338	-119.2088
18.9883608818054	-117.0328
19.0039811134338	-114.9718
19.0196108818054	-111.5514
19.0352311134338	-105.7232
19.0508608818054	-97.31032
19.0664811134338	-87.06995
19.0821108818054	-76.2598
19.0977408885956	-66.04161
19.1133608818054	-57.13228
19.1289908885956	-49.77986
19.1446108818054	-43.99066
19.1602408885956	-39.76292
19.1758608818054	-37.14026
19.1914908885956	-36.04526
19.2071208953857	-36.10095
19.2227408885956	-36.61598
19.2383708953857	-36.75679
19.2539908885956	-35.86969
19.2696208953857	-33.72209
19.2852408885956	-30.52042
19.3008708953857	-26.69881
19.3165009021759	-22.66206
19.3321208953857	-18.62267
19.3477509021759	-14.61072
19.3633708953857	-10.63316
19.3790009021759	-6.789566
19.3946208953857	-3.287567
19.4102509021759	-0.3526306
19.4258809089661	1.889786
19.4415009021759	3.439209
19.4571309089661	4.336014
19.4727509021759	4.586899
19.4883809089661	4.147202
19.5040009021759	3.02272
19.5196309089661	1.423965
19.5352609157562	-0.246521
19.5508809089661	-1.464188
19.5665109157562	-1.712852
19.5821309089661	-0.6939926
19.5977609157562	1.639648
19.6133809089661	5.107727
19.6290109157562	9.379128
19.6446409225464	14.07319
19.6602609157562	18.8572
19.6758909225464	23.55227
19.6915109157562	28.12182
19.7071409225464	32.73521
19.7227609157562	37.60932
19.7383909225464	42.89924
19.7540209293365	48.52064
19.7696409225464	54.09579
19.7852709293365	58.97366
19.8008909225464	62.40147
19.8165209293365	63.75031
19.8321409225464	62.67059
19.8477709293365	59.30228
19.8634009361267	54.3111
19.8790209293365	48.83144
19.8946509361267	44.26196
19.9102709293365	41.94673
19.9259009361267	42.82602
19.9415209293365	47.1904
19.9571509361267	54.65112
19.9727809429169	64.3461
19.9884009361267	75.25163
20.0040309429169	86.47621
20.0196509361267	97.38149
20.0352809429169	107.5291
20.0509009361267	116.578
20.0665309429169	124.1918
20.082160949707	130.0555
20.0977809429169	133.9734
20.113410949707	135.8998
20.1290309429169	135.9696
20.144660949707	134.3923
20.1602809429169	131.3831
20.175910949707	127.1379
20.1915409564972	121.8276
20.207160949707	115.6099
20.2227909564972	108.6115
20.238410949707	100.8727
20.2540409564972	92.30522
20.269660949707	82.75084
20.2852909564972	72.0872
20.3009209632874	60.31989
20.3165409564972	47.64452
20.3321709632874	34.40916
20.3477909564972	21.04661
20.3634209632874	7.997475
20.3790409564972	-4.307777
20.3946709632874	-15.5472
20.4103009700775	-25.51258
20.4259209632874	-34.22163
20.4415509700775	-41.92928
20.4571709632874	-49.10247
20.4728009700775	-56.2073
20.4884209632874	-63.60547
20.5040509700775	-71.39165
20.5196809768677	-79.45157
20.5353009700775	-87.51099
20.5509309768677	-95.18033
20.5665509700775	-101.9323
20.5821809768677	-107.1528
20.5978009700775	-110.1717
20.6134309768677	-110.5046
20.6290609836578	-108.0436
20.6446809768677	-103.1374
20.6603109836578	-96.44986
20.6759309768677	-88.69054
20.6915609836578	-80.34019
20.7071809768677	-71.60532
20.7228109836578	-62.59552
20.738440990448	-53.56749
20.7540609836578	-45.04916
20.769690990448	-37.72285
20.7853109836578	-32.14114
20.800940990448	-28.36873
20.8165609836578	-25.93272
20.832190990448	-23.9061
20.8478209972382	-21.31035
20.863440990448	-17.4425
20.8790709972382	-12.10922
20.894690990448	-5.625702
20.9103209972382	1.356232
20.9259510040283	8.113678
20.9415709972382	14.08264
20.9572010040283	18.94623
20.9728209972382	22.65875
20.9884510040283	25.26956
21.0040709972382	26.78683
21.0197010040283	27.04343
21.0353310108185	25.76096
21.0509510040283	22.66864
21.0665810108185	17.74942
21.0822010040283	11.32346
21.0978310108185	4.024963
21.1134510040283	-3.405334
21.1290810108185	-10.42014
21.1447110176086	-16.88132
21.1603310108185	-23.04532
21.1759610176086	-29.40393
21.1915810108185	-36.37939
21.2072110176086	-44.09879
21.2228310108185	-52.32742
21.2384610176086	-60.55655
21.2540910243988	-68.13882
21.2697110176086	-74.37683
21.2853410243988	-78.57645
21.3009610176086	-80.1008
21.3165910243988	-78.51453
21.3322110176086	-73.75891
21.3478410243988	-66.30164
21.363471031189	-57.04007
21.3790910243988	-47.04785
21.394721031189	-37.20511
21.4103410243988	-27.96548
21.425971031189	-19.38403
21.4415910243988	-11.35376
21.457221031189	-3.909424
21.4728510379791	2.641144
21.488471031189	7.892548
21.5041010379791	11.6582
21.519721031189	14.18179
21.5353510379791	16.16458
21.550971031189	18.43362
21.5666010379791	21.56659
21.5822310447693	25.57092
21.5978510379791	29.8895
21.6134810447693	33.66409
21.6291010379791	36.16125
21.6447310447693	37.04218
21.6603510379791	36.45456
21.6759810447693	34.82045
21.6916110515594	32.56125
21.7072310447693	29.87712
21.7228610515594	26.71405
21.7384810447693	22.92545
21.7541110515594	18.4828
21.7697310447693	13.58618
21.7853610515594	8.557343
21.8009910583496	3.703796
21.8166110515594	-0.9176178
21.8322410583496	-5.495895
21.8478610515594	-10.44269
21.8634910583496	-16.13457
21.8791110515594	-22.76753
21.8947410583496	-30.27786
21.9103710651398	-38.34724
21.9259910583496	-46.56744
21.9416210651398	-54.49068
21.9572410583496	-61.74632
21.9728710651398	-68.00046
21.9884910583496	-72.97198
22.0041210651398	-76.42387
22.0197510719299	-78.19908
22.0353710651398	-78.24306
22.0510010719299	-76.61366
22.0666210651398	-73.48308
22.0822510719299	-69.05005
22.0978710651398	-63.54941
22.1135010719299	-57.2059
22.1291310787201	-50.29247
22.1447510719299	-43.22156
22.1603810787201	-36.52841
22.1760010719299	-30.8139
22.1916310787201	-26.55765
22.2072510719299	-23.91792
22.2228810787201	-22.60793
22.2385110855103	-22.01309
22.2541310787201	-21.39272
22.2697610855103	-20.19916
22.2853810787201	-18.27893
22.3010110855103	-15.82228
22.3166310787201	-13.24394
22.3322610855103	-10.88351
22.3478910923004	-8.867615
22.3635110855103	-7.100151
22.3791410923004	-5.428772
22.3947610855103	-3.82933
22.4103910923004	-2.533718
22.4260110855103	-1.983665
22.4416410923004	-2.642971
22.4572710990906	-4.793995
22.4728910923004	-8.362679
22.4885210990906	-12.92765
22.5041410923004	-17.88142
22.5197710990906	-22.7095
22.5353910923004	-27.18539
22.5510210990906	-31.46913
22.5666511058807	-36.0632
22.5822710990906	-41.44807
22.5979011058807	-47.85576
22.6135210990906	-54.93557
22.6291511058807	-61.74462
22.6447710990906	-66.91132
22.6604011058807	-69.00931
22.6760311126709	-66.95358
22.6916511058807	-60.30386
22.7072811126709	-49.38271
22.7229011058807	-35.10246
22.7385311126709	-18.72329
22.7541511058807	-1.502518
22.7697811126709	15.52858
22.7854108810425	31.69516
22.8010311126709	46.5835
22.8166608810425	59.92386
22.8322811126709	71.44469
22.8479108810425	80.83453
22.8635311126709	87.82312
22.8791608810425	92.31487
22.8947908878326	94.5632
22.9104108810425	95.14941
22.9260408878326	94.85495
22.9416608810425	94.34714
22.9572908878326	93.9977
22.9729108810425	93.73131
22.9885408878326	93.18469
23.0041708946228	91.93207
23.0197908878326	89.69589
23.0354208946228	86.40149
23.0510408878326	82.14676
23.0666708946228	76.95633
23.0822908878326	70.71686
23.0979208946228	63.21002
23.113550901413	54.28204
23.1291708946228	44.02145
23.144800901413	32.82126
23.1604208946228	21.27921
23.176050901413	9.971283
23.1916708946228	-0.7556458
23.207300901413	-10.87842
23.2229309082031	-20.57181
23.238550901413	-29.94638
23.2541809082031	-38.82315
23.269800901413	-46.60315
23.2854309082031	-52.31467
23.301050901413	-54.88412
23.3166809082031	-53.44193
23.3323109149933	-47.61655
23.3479309082031	-37.63651
23.3635609149933	-24.32025
23.3791809082031	-8.92157
23.3948109149933	7.113281
23.4104309082031	22.39545
23.4260609149933	35.82727
23.4416909217834	46.72891
23.4573109149933	54.87662
23.4729409217834	60.35849
23.4885609149933	63.41296
23.5041909217834	64.29214
23.5198109149933	63.2294
23.5354409217834	60.5144
23.5510709285736	56.5871
23.5666909217834	52.04318
23.5823209285736	47.45609
23.5979409217834	43.1582
23.6135709285736	39.09039
23.6292009353638	34.80252
23.6448209285736	29.68311
23.6604509353638	23.24457
23.6760709285736	15.3392
23.6917009353638	6.221985
23.7073209285736	-3.584351
23.7229509353638	-13.48438
23.7385809421539	-22.96225
23.7542009353638	-31.69208
23.7698309421539	-39.51099
23.7854509353638	-46.36682
23.8010809421539	-52.30783
23.8167009353638	-57.41095
23.8323309421539	-61.8822
23.8479609489441	-65.96512
23.8635809421539	-69.98059
23.8792109489441	-74.18503
23.8948309421539	-78.65359
23.9104609489441	-83.08652
23.9260809421539	-86.76068
23.9417109489441	-88.67108
23.9573409557343	-87.75421
23.9729609489441	-83.30713
23.9885909557343	-75.20972
24.0042109489441	-63.96808
24.0198409557343	-50.53918
24.0354609489441	-36.01294
24.0510909557343	-21.32306
24.0667209625244	-7.127197
24.0823409557343	6.160278
24.0979709625244	18.29791
24.1135909557343	29.04724
24.1292209625244	38.20233
24.1448409557343	45.55603
24.1604709625244	51.00806
24.1761009693146	54.6297
24.1917209625244	56.69104
24.2073509693146	57.62122
24.2229709625244	57.95392
24.2386009693146	58.16888
24.2542209625244	58.54938
24.2698509693146	59.08752
24.2854809761047	59.52197
24.3011009693146	59.43781
24.3167309761047	58.48303
24.3323509693146	56.45074
24.3479809761047	53.35944
24.3636009693146	49.36475
24.3792309761047	44.71533
24.3948609828949	39.6073
24.4104809761047	34.22778
24.4261109828949	28.69598
24.4417309761047	23.10168
24.4573609828949	17.46057
24.4729809761047	11.74066
24.4886109828949	5.781677
24.5042409896851	-0.6349487
24.5198609828949	-7.720337
24.5354909896851	-15.55646
24.5511109828949	-23.89313
24.5667409896851	-32.07385
24.5823609828949	-39.08783
24.5979909896851	-43.81458
24.6136209964752	-45.34973
24.6292409896851	-43.33923
24.6448709964752	-38.06934
24.6604909896851	-30.36145
24.6761209964752	-21.28021
24.6917409896851	-11.76379
24.7073709964752	-2.519348
24.7230010032654	6.033569
24.7386209964752	13.62811
24.7542510032654	20.05463
24.7698709964752	25.13086
24.7855010032654	28.79095
24.8011209964752	31.11371
24.8167510032654	32.2995
24.8323810100555	32.61481
24.8480010032654	32.31989
24.8636310100555	31.61877
24.8792510032654	30.71484
24.8948810100555	29.79889
24.9105010032654	29.02271
24.9261310100555	28.42535
24.9417610168457	27.89899
24.9573810100555	27.18915
24.9730110168457	26.04352
24.9886310100555	24.30133
25.0042610168457	22.01886
25.0198810100555	19.40552
25.0355110168457	16.73645
25.0511410236359	14.21869
25.0667610168457	11.90375
25.0823910236359	9.705566
25.0980110168457	7.409973
25.1136410236359	4.816528
25.1292610168457	1.763916
25.1448910236359	-1.826782
25.160521030426	-5.95697
25.1761410236359	-10.51984
25.191771030426	-15.2312
25.2073910236359	-19.58038
25.223021030426	-22.82892
25.2386410236359	-24.16058
25.254271030426	-22.90991
25.2699010372162	-18.84155
25.285521030426	-12.27496
25.3011510372162	-3.986816
25.316771030426	5.037292
25.3324010372162	13.98376
25.348021030426	22.38251
25.3636510372162	30.14948
25.3792810440063	37.34558
25.3949010372162	43.93811
25.4105310440063	49.70709
25.4261510372162	54.28052
25.4417810440063	57.34265
25.4574010372162	58.81146
25.4730310440063	58.91931
25.4886610507965	58.09894
25.5042810440063	56.87677
25.5199110507965	55.63568
25.5355310440063	54.5719
25.5511610507965	53.68463
25.5667810440063	52.85168
25.5824110507965	51.8999
25.5980410575867	50.67651
25.6136610507965	49.0545
25.6292910575867	46.91656
25.6449110507965	44.18628
25.6605410575867	40.82092
25.6761610507965	36.88403
25.6917910575867	32.56189
25.7074210643768	28.15869
25.7230410575867	23.94678
25.7386710643768	20.08112
25.7542910575867	16.46899
25.7699210643768	12.75946
25.785551071167	8.468018
25.8011710643768	3.204224
25.816801071167	-3.137512
25.8324210643768	-10.21259
25.848051071167	-17.26337
25.8636710643768	-23.2818
25.879301071167	-27.26843
25.8949310779572	-28.53687
25.910551071167	-26.95038
25.9261810779572	-22.87122
25.941801071167	-17.08484
25.9574310779572	-10.53125
25.973051071167	-4.044495
25.9886810779572	1.813171
26.0043110847473	6.776001
26.0199310779572	10.76733
26.0355610847473	13.74634
26.0511810779572	15.59088
26.0668110847473	16.17877
26.0824310779572	15.40466
26.0980610847473	13.39581
26.1136910915375	10.52301
26.1293110847473	7.400269
26.1449410915375	4.673889
26.1605610847473	2.799377
26.1761910915375	1.891907
26.1918110847473	1.658813
26.2074410915375	1.602966
26.2230710983276	1.199646
26.2386910915375	0.147583
26.2543210983276	-1.544128
26.2699410915375	-3.619019
26.2855710983276	-5.809387
26.3011910915375	-7.958191
26.3168210983276	-10.12817
26.3324511051178	-12.52814
26.3480710983276	-15.3399
26.3637011051178	-18.59772
26.3793210983276	-22.18359
26.3949511051178	-25.89923
26.4105710983276	-29.68115
26.4262011051178	-33.64685
26.441831111908	-38.04901
26.4574511051178	-43.05646
26.473081111908	-48.53986
26.4887011051178	-53.89716
26.504331111908	-58.16962
26.5199511051178	-60.24725
26.535581111908	-59.29437
26.5512108802795	-55.03522
26.566831111908	-47.86804
26.5824608802795	-38.72211
26.598081111908	-28.71875
26.6137108802795	-18.86481
26.629331111908	-9.823364
26.6449608802795	-1.983459
26.6605908870697	4.437439
26.6762108802795	9.226257
26.6918408870697	12.1568
26.7074608802795	13.11517
26.7230908870697	12.27258
26.7387108802795	10.17596
26.7543408870697	7.614868
26.7699708938599	5.40094
26.7855908870697	4.007019
26.8012208938599	3.396606
26.8168408870697	3.077698
26.8324708938599	2.336609
26.8480908870697	0.6229248
26.8637208938599	-2.18866
26.87935090065	-5.741882
26.8949708938599	-9.364746
26.91060090065	-12.38989
26.9262208938599	-14.42242
26.94185090065	-15.51904
26.9574708938599	-16.10809
26.97310090065	-16.82776
26.9887309074402	-18.22937
27.00435090065	-20.64435
27.0199809074402	-24.00854
27.03560090065	-27.94452
27.0512309074402	-31.73322
27.06685090065	-34.52521
27.0824809074402	-35.49652
27.0981109142303	-34.00995
27.1137309074402	-29.80389
27.1293609142303	-23.02502
27.1449809074402	-14.18823
27.1606109142303	-3.977478
27.1762309074402	6.907776
27.1918609142303	17.9118
27.2074909210205	28.60852
27.2231109142303	38.64874
27.2387409210205	47.77026
27.2543609142303	55.73389
27.2699909210205	62.41772
27.2856109142303	67.85107
27.3012409210205	72.21466
27.3168709278107	75.74579
27.3324909210205	78.60284
27.3481209278107	80.76318
27.3637409210205	82.01367
27.3793709278107	82.11487
27.3949909210205	80.92938
27.4106209278107	78.54956
27.4262509346008	75.30969
27.4418709278107	71.66571
27.4575009346008	68.00726
27.4731209278107	64.5152
27.4887509346008	61.0661
27.5043709278107	57.25629
27.5200009346008	52.55994
27.535630941391	46.45813
27.5512509346008	38.6778
27.566880941391	29.2851
27.5825009346008	18.75586
27.598130941391	7.893677
27.6137509346008	-2.320984
27.629380941391	-10.95361
27.6450109481812	-17.36615
27.660630941391	-21.33997
27.6762609481812	-23.09052
27.691880941391	-23.13467
27.7075109481812	-22.0578
27.723130941391	-20.35117
27.7387609481812	-18.30222
27.7543909549713	-16.04227
27.7700109481812	-13.63016
27.7856409549713	-11.21628
27.8012609481812	-9.070404
27.8168909549713	-7.501129
27.8325109481812	-6.758087
27.8481409549713	-6.892609
27.8637709617615	-7.775238
27.8793909549713	-9.14444
27.8950209617615	-10.76215
27.9106409549713	-12.53619
27.9262709617615	-14.57373
27.9418909549713	-17.08203
27.9575209617615	-20.22617
27.9731509685516	-23.97345
27.9887709617615	-28.04376
28.0044009685516	-31.97018
28.0200209617615	-35.30298
28.0356509685516	-37.80267
28.0512709617615	-39.55838
28.0669009685516	-41.01859
28.0825309753418	-42.80872
28.0981509685516	-45.5311
28.1137809753418	-49.52106
28.1294009685516	-54.74658
28.1450309753418	-60.78772
28.1606509685516	-66.90457
28.1762809753418	-72.19238
28.191910982132	-75.70526
28.2075309753418	-76.6525
28.223160982132	-74.49969
28.2387809753418	-69.09277
28.254410982132	-60.73999
28.2700309753418	-50.07211
28.285660982132	-37.95227
28.3012909889221	-25.28189
28.316910982132	-12.84735
28.3325409889221	-1.291718
28.348160982132	8.900177
28.3637909889221	17.32773
28.379410982132	23.71085
28.3950409889221	27.90286
28.4106709957123	29.97714
28.4262909889221	30.20599
28.4419209957123	29.06219
28.4575409889221	27.06128
28.4731709957123	24.65887
28.4888010025024	22.15851
28.5044209957123	19.71808
28.5200510025024	17.33972
28.5356709957123	14.91367
28.5513010025024	12.30594
28.5669209957123	9.411774
28.5825510025024	6.195068
28.5981810092926	2.717651
28.6138010025024	-0.9593811
28.6294310092926	-4.850464
28.6450510025024	-9.149048
28.6606810092926	-14.18994
28.6763010025024	-20.33197
28.6919310092926	-27.72
28.7075610160828	-36.16962
28.7231810092926	-45.11273
28.7388110160828	-53.6886
28.7544310092926	-60.9263
28.7700610160828	-65.99051
28.7856810092926	-68.28162
28.8013110160828	-67.54248
28.8169410228729	-63.84027
28.8325610160828	-57.54828
28.8481910228729	-49.24039
28.8638110160828	-39.59567
28.8794410228729	-29.26843
28.8950610160828	-18.86908
28.9106910228729	-8.928802
28.9263210296631	0.03799438
28.9419410228729	7.556122
28.9575710296631	13.26303
28.9731910228729	17.02432
28.9888210296631	19.00928
29.0044410228729	19.70093
29.0200710296631	19.74704
29.0357010364532	19.70328
29.0513210296631	19.896
29.0669510364532	20.3024
29.0825710296631	20.62653
29.0982010364532	20.4534
29.1138210296631	19.48987
29.1294510364532	17.63693
29.1450810432434	15.08289
29.1607010364532	12.18066
29.1763310432434	9.301605
29.1919510364532	6.698944
29.2075810432434	4.404602
29.2232010364532	2.275238
29.2388310432434	0.0675354
29.2544610500336	-2.426697
29.2700810432434	-5.308167
29.2857110500336	-8.594604
29.3013310432434	-12.23141
29.3169610500336	-16.10458
29.3325810432434	-19.99579
29.3482110500336	-23.50534
29.3638410568237	-26.03177
29.3794610500336	-26.8764
29.3950910568237	-25.43332
29.4107110500336	-21.41663
29.4263410568237	-15.00385
29.4419610500336	-6.78421
29.4575910568237	2.427826
29.4732210636139	11.84995
29.4888410568237	20.89468
29.5044710636139	29.25864
29.5200910568237	36.78674
29.5357210636139	43.33942
29.5513410568237	48.6763
29.5669710636139	52.45422
29.5826010704041	54.34119
29.5982210636139	54.18814
29.6138510704041	52.16806
29.6294710636139	48.78146
29.6451010704041	44.74951
29.6607210636139	40.74438
29.6763510704041	37.21268
29.6919810771942	34.25354
29.7076010704041	31.64163
29.7232310771942	29.02197
29.7388510704041	26.08896
29.7544810771942	22.70517
29.7701010704041	18.96289
29.7857310771942	15.04498
29.8013610839844	11.16708
29.8169810771942	7.457947
29.8326110839844	3.988037
29.8482310771942	0.7641296
29.8638610839844	-2.209839
29.8794810771942	-4.952454
29.8951110839844	-7.520813
29.9107410907745	-10.05038
29.9263610839844	-12.65616
29.9419910907745	-15.34985
29.9576110839844	-17.85248
29.9732410907745	-19.56485
29.9888610839844	-19.73126
30.0044910907745	-17.67239
30.0201210975647	-13.09839
30.0357410907745	-6.234528
30.0513710975647	2.268677
30.0669910907745	11.59479
30.0826210975647	21.04541
30.0982410907745	30.24069
30.1138710975647	39.05774
30.1295011043549	47.48862
30.1451210975647	55.42834
30.1607511043549	62.54346
30.1763710975647	68.32925
30.1920011043549	72.25192
30.2076210975647	73.96371
30.2232511043549	73.43362
30.238881111145	70.99106
30.2545011043549	67.22449
30.270131111145	62.81461
30.2857511043549	58.35306
30.301381111145	54.18741
30.3170011043549	50.37375
30.332631111145	46.73892
30.3482608795166	42.98633
30.363881111145	38.8927
30.3795108795166	34.36166
30.395131111145	29.46777
30.4107608795166	24.38278
30.426381111145	19.31989
30.4420108795166	14.39035
30.4576408863068	9.59671
30.4732608795166	4.811615
30.4888908863068	-0.1224518
30.5045108795166	-5.335327
30.5201408863068	-10.87708
30.5357608795166	-16.76599
30.5513908863068	-22.99988
30.5670208930969	-29.59232
30.5826408863068	-36.478
30.5982708930969	-43.37968
30.6138908863068	-49.70943
30.6295208930969	-54.65236
30.6451508998871	-57.4102
30.6607708930969	-57.50885
30.6764008998871	-55.02391
30.6920208930969	-50.56866
30.7076508998871	-45.03621
30.7232708930969	-39.27078
30.7389008998871	-33.77272
30.7545309066772	-28.70892
30.7701508998871	-24.07846
30.7857809066772	-19.99356
30.8014008998871	-16.79103
30.8170309066772	-14.951
30.8326508998871	-14.85655
30.8482809066772	-16.52521
30.8639109134674	-19.51794
30.8795309066772	-23.07979
30.8951609134674	-26.44754
30.9107809066772	-29.14792
30.9264109134674	-31.09023
30.9420309066772	-32.483
30.9576609134674	-33.62891
30.9732909202576	-34.74895
30.9889109134674	-35.89476
31.0045409202576	-37.01328
31.0201609134674	-38.03437
31.0357909202576	-38.9394
31.0514109134674	-39.7822
31.0670409202576	-40.59972
31.0826709270477	-41.43667
31.0982909202576	-42.31382
31.1139209270477	-43.28543
31.1295409202576	-44.43023
31.1451709270477	-45.85907
31.1607909202576	-47.60249
31.1764209270477	-49.56114
31.1920509338379	-51.42496
31.2076709270477	-52.66284
31.2233009338379	-52.63319
31.2389209270477	-50.75643
31.2545509338379	-46.70471
31.2701709270477	-40.58479
31.2858009338379	-32.91996
31.3014309406281	-24.46375
31.3170509338379	-15.91033
31.3326809406281	-7.677513
31.3483009338379	0.1217041
31.3639309406281	7.544167
31.3795509338379	14.54616
31.3951809406281	20.87374
31.4108109474182	26.08849
31.4264309406281	29.78788
31.4420609474182	31.82626
31.4576809406281	32.3893
31.4733109474182	31.90274
31.4889309406281	30.83302
31.5045609474182	29.51413
31.5201909542084	28.08537
31.5358109474182	26.56442
31.5514409542084	24.88733
31.5670609474182	23.04089
31.5826909542084	21.03345
31.5983109474182	18.91331
31.6139409542084	16.74883
31.6295709609985	14.60866
31.6451909542084	12.55854
31.6608209609985	10.62352
31.6764409542084	8.780388
31.6920709609985	6.971458
31.7076909542084	5.067505
31.7233209609985	2.959747
31.7389509677887	0.5274963
31.7545709609985	-2.256165
31.7702009677887	-5.313416
31.7858209609985	-8.378578
31.8014509677887	-11.01711
31.8170709609985	-12.61499
31.8327009677887	-12.57063
31.8483309745789	-10.44124
31.8639509677887	-6.098587
31.8795809745789	0.1736145
31.8952009677887	7.798088
31.9108309745789	16.04795
31.9264509677887	24.24518
31.9420809745789	31.92367
31.957710981369	38.83431
31.9733309745789	44.89021
31.988960981369	50.02908
32.0045809745789	54.15356
32.020210981369	57.11799
32.0358309745789	58.80058
32.051460981369	59.19802
32.0670909881592	58.48567
32.082710981369	56.9734
32.0983409881592	55.02155
32.113960981369	52.88434
32.1295909881592	50.63374
32.145210981369	48.129
32.1608409881592	45.13045
32.1764709949493	41.41741
32.1920909881592	36.94527
32.2077209949493	31.82874
32.2233409881592	26.3209
32.2389709949493	20.64254
32.2545909881592	14.92237
32.2702209949493	9.133575
32.2858510017395	3.120457
32.3014709949493	-3.32864
32.3171010017395	-10.40484
32.3327209949493	-18.20675
32.3483510017395	-26.69205
32.3639709949493	-35.66159
32.3796010017395	-44.73675
32.3952310085297	-53.35884
32.4108510017395	-60.82831
32.4264810085297	-66.42944
32.4421010017395	-69.51037
32.4577310085297	-69.69289
32.4733510017395	-66.95039
32.4889810085297	-61.67562
32.5046110153198	-54.59461
32.5202310085297	-46.56375
32.5358610153198	-38.37316
32.5514810085297	-30.54739
32.5671110153198	-23.39095
32.5827310085297	-17.06782
32.5983610153198	-11.81976
32.61399102211	-7.969587
32.6296110153198	-5.827021
32.64524102211	-5.461046
32.6608610153198	-6.544199
32.67649102211	-8.411339
32.6921110153198	-10.28861
32.70774102211	-11.64383
32.7233710289001	-12.36621
32.73899102211	-12.77216
32.7546210289001	-13.3217
32.77024102211	-14.36523
32.7858710289001	-16.01331
32.80149102211	-18.13214
32.8171210289001	-20.53043
32.8327510356903	-23.05359
32.8483710289001	-25.62688
32.8640010356903	-28.24221
32.8796210289001	-30.88585
32.8952510356903	-33.58255
32.9108810424805	-36.37024
32.9265010356903	-39.34163
32.9421310424805	-42.53584
32.9577510356903	-45.92044
32.9733810424805	-49.22626
32.9890010356903	-51.99519
33.0046310424805	-53.63602
33.0202610492706	-53.54667
33.0358810424805	-51.27448
33.0515110492706	-46.6264
33.0671310424805	-39.77886
33.0827610492706	-31.20027
33.0983810424805	-21.62725
33.1140110492706	-11.81029
33.1296410560608	-2.34313
33.1452610492706	6.439558
33.1608910560608	14.44555
33.1765110492706	21.65898
33.1921410560608	27.99695
33.2077610492706	33.21392
33.2233910560608	37.0217
33.239021062851	39.20752
33.2546410560608	39.82839
33.270271062851	39.24249
33.2858910560608	37.94625
33.301521062851	36.43857
33.3171410560608	34.98268
33.332771062851	33.58018
33.3484010696411	32.02615
33.364021062851	30.03892
33.3796510696411	27.40731
33.395271062851	24.10659
33.4109010696411	20.24409
33.426521062851	16.02652
33.4421510696411	11.65114
33.4577810764313	7.202035
33.4734010696411	2.663704
33.4890310764313	-2.042696
33.5046510696411	-7.03724
33.5202810764313	-12.40526
33.5359010696411	-18.17158
33.5515310764313	-24.27529
33.5671610832214	-30.5704
33.5827810764313	-36.71618
33.5984110832214	-42.19624
33.6140310764313	-46.33148
33.6296610832214	-48.40314
33.6452810764313	-47.85807
33.6609110832214	-44.48823
33.6765410900116	-38.50661
33.6921610832214	-30.50081
33.7077910900116	-21.28997
33.7234110832214	-11.6707
33.7390410900116	-2.288082
33.7546610832214	6.460308
33.7702910900116	14.39352
33.7859210968018	21.41461
33.8015410900116	27.40985
33.8171710968018	32.1922
33.8327910900116	35.54911
33.8484210968018	37.33688
33.8640410900116	37.62536
33.8796710968018	36.71015
33.8953011035919	35.06199
33.9109210968018	33.16171
33.9265511035919	31.35046
33.9421710968018	29.80251
33.9578011035919	28.52514
33.9734210968018	27.45024
33.9890511035919	26.48666
34.0046811103821	25.61317
34.0203011035919	24.79352
34.0359311103821	23.97397
34.0515511035919	23.0481
34.0671811103821	21.84673
34.0828011035919	20.19806
34.0984311103821	17.95251
34.1140608787537	15.08181
34.1296811103821	11.66639
34.1453108787537	7.877541
34.1609311103821	3.898155
34.1765608787537	-0.1206627
34.1921811103821	-4.042801
34.2078108787537	-7.691307
34.2234408855438	-10.72511
34.2390608787537	-12.63219
34.2546908855438	-12.8127
34.2703108787537	-10.82056
34.2859408855438	-6.546082
34.3015608787537	-0.3127899
34.3171908855438	7.221222
34.332820892334	15.2901
34.3484408855438	23.25887
34.364070892334	30.72173
34.3796908855438	37.45303
34.395320892334	43.28019
34.4109408855438	47.97647
34.426570892334	51.30235
34.4422008991241	53.11105
34.457820892334	53.46091
34.4734508991241	52.6386
34.489070892334	51.04418
34.5047008991241	49.09246
34.520320892334	47.04427
34.5359508991241	45.00103
34.5515809059143	42.93211
34.5672008991241	40.75728
34.5828309059143	38.40788
34.5984508991241	35.81712
34.6140809059143	32.93099
34.6297008991241	29.69706
34.6453309059143	26.10122
34.6609609127045	22.21562
34.6765809059143	18.20575
34.6922109127045	14.2654
34.7078309059143	10.56504
34.7234609127045	7.140513
34.7390809059143	3.859866
34.7547109127045	0.4796696
34.7703409194946	-3.269857
34.7859609127045	-7.558807
34.8015909194946	-12.34291
34.8172109127045	-17.30061
34.8328409194946	-21.88617
34.8484609127045	-25.42311
34.8640909194946	-27.30568
34.8797209262848	-27.14726
34.8953409194946	-24.90284
34.9109709262848	-20.85674
34.9265909194946	-15.5667
34.9422209262848	-9.676003
34.9578409194946	-3.751968
34.9734709262848	1.825188
34.989100933075	6.872513
35.0047209262848	11.33395
35.020350933075	15.12595
35.0359709262848	18.08896
35.051600933075	19.97083
35.0672209262848	20.57819
35.082850933075	19.9286
35.0984809398651	18.32446
35.114100933075	16.28505
35.1297309398651	14.34635
35.145350933075	12.80327
35.1609809398651	11.59903
35.176600933075	10.38542
35.1922309398651	8.736679
35.2078609466553	6.365356
35.2234809398651	3.252991
35.2391109466553	-0.4213409
35.2547309398651	-4.391891
35.2703609466553	-8.465866
35.2859809398651	-12.54808
35.3016109466553	-16.62956
35.3172409534454	-20.68944
35.3328609466553	-24.67245
35.3484909534454	-28.51662
35.3641109466553	-32.21935
35.3797409534454	-35.82443
35.3953609466553	-39.45473
35.4109909534454	-43.20673
35.4266209602356	-47.09671
35.4422409534454	-50.95793
35.4578709602356	-54.39624
35.4734909534454	-56.8362
35.4891209602356	-57.67043
35.5047509670258	-56.45277
35.5203709602356	-53.09685
35.5360009670258	-47.95097
35.5516209602356	-41.66203
35.5672509670258	-34.97676
35.5828709602356	-28.50185
35.5985009670258	-22.58511
35.6141309738159	-17.39673
35.6297509670258	-13.0062
35.6453809738159	-9.528015
35.6610009670258	-7.096237
35.6766309738159	-5.796631
35.6922509670258	-5.554642
35.7078809738159	-6.1138
35.7235109806061	-7.083557
35.7391309738159	-8.085846
35.7547609806061	-8.864731
35.7703809738159	-9.310699
35.7860109806061	-9.478882
35.8016309738159	-9.52504
35.8172609806061	-9.678284
35.8328909873962	-10.15639
35.8485109806061	-11.11375
35.8641409873962	-12.6057
35.8797609806061	-14.56924
35.8953909873962	-16.83575
35.9110109806061	-19.22676
35.9266409873962	-21.59555
35.9422709941864	-23.88593
35.9578909873962	-26.14378
35.9735209941864	-28.45081
35.9891409873962	-30.91547
36.0047709941864	-33.5477
36.0203909873962	-36.21419
36.0360209941864	-38.59145
36.0516510009766	-40.21494
36.0672709941864	-40.57042
36.0829010009766	-39.21887
36.0985209941864	-35.96497
36.1141510009766	-30.84523
36.1297709941864	-24.12874
36.1454010009766	-16.2401
36.1610310077667	-7.650726
36.1766510009766	1.161285
36.1922810077667	9.727051
36.2079010009766	17.65741
36.2235310077667	24.65482
36.2391510009766	30.5509
36.2547810077667	35.32121
36.2704110145569	39.04942
36.2860310077667	41.85632
36.3016610145569	43.86879
36.3172810077667	45.20505
36.3329110145569	45.93053
36.3485310077667	46.1021
36.3641610145569	45.71428
36.379791021347	44.70851
36.3954110145569	42.96487
36.411041021347	40.33791
36.4266610145569	36.72285
36.442291021347	32.10948
36.4579110145569	26.60989
36.473541021347	20.43277
36.4891710281372	13.84935
36.504791021347	7.092194
36.5204210281372	0.3344421
36.536041021347	-6.353592
36.5516710281372	-12.97501
36.567291021347	-19.58687
36.5829210281372	-26.18958
36.5985510349274	-32.64816
36.6141710281372	-38.61864
36.6298010349274	-43.54491
36.6454210281372	-46.79553
36.6610510349274	-47.8022
36.6766710281372	-46.24391
36.6923010349274	-42.14038
36.7079310417175	-35.87585
36.7235510349274	-28.11302
36.7391810417175	-19.6053
36.7548010349274	-11.04895
36.7704310417175	-2.923645
36.7860510349274	4.550629
36.8016810417175	11.32938
36.8173110485077	17.40692
36.8329310417175	22.67899
36.8485610485077	26.90688
36.8641810417175	29.79581
36.8798110485077	31.14085
36.8954310417175	30.95978
36.9110610485077	29.52101
36.9266910552979	27.25835
36.9423110485077	24.60469
36.9579410552979	21.83414
36.9735610485077	18.9879
36.9891910552979	15.97908
37.0048110485077	12.68216
37.0204410552979	9.071503
37.036071062088	5.232941
37.0516910552979	1.322952
37.067321062088	-2.55423
37.0829410552979	-6.452484
37.098571062088	-10.56447
37.1141910552979	-15.1754
37.129821062088	-20.50041
37.1454510688782	-26.56577
37.161071062088	-33.16527
37.1767010688782	-39.90454
37.192321062088	-46.27824
37.2079510688782	-51.79091
37.223571062088	-56.01248
37.2392010688782	-58.58701
37.2548310756683	-59.21248
37.2704510688782	-57.66266
37.2860810756683	-53.84314
37.3017010688782	-47.90207
37.3173310756683	-40.29909
37.3329510688782	-31.79033
37.3485810756683	-23.30768
37.3642110824585	-15.74957
37.3798310756683	-9.817413
37.3954610824585	-5.888046
37.4110810756683	-4.035904
37.4267110824585	-4.06337
37.4423310756683	-5.610626
37.4579610824585	-8.167191
37.4735910892487	-11.14421
37.4892110824585	-13.89948
37.5048410892487	-15.87273
37.5204610824585	-16.68901
37.5360910892487	-16.26624
37.5517110824585	-14.84999
37.5673410892487	-12.91522
37.5829710960388	-10.9662
37.5985910892487	-9.395493
37.6142210960388	-8.376602
37.6298410892487	-7.882339
37.6454710960388	-7.807373
37.6610910892487	-8.043716
37.6767210960388	-8.554184
37.692351102829	-9.330872
37.7079710960388	-10.37405
37.723601102829	-11.63562
37.7392210960388	-13.11478
37.754851102829	-14.88139
37.7704811096191	-17.08809
37.786101102829	-19.86173
37.8017311096191	-23.12341
37.817351102829	-26.44227
37.8329811096191	-29.04428
37.848601102829	-30.03851
37.8642311096191	-28.70937
37.8798608779907	-24.83208
37.8954811096191	-18.70777
37.9111108779907	-11.00876
37.9267311096191	-2.545486
37.9423608779907	6.035774
37.9579811096191	14.30992
37.9736108779907	22.04908
37.9892408847809	29.07896
38.0048608779907	35.20497
38.0204908847809	40.21011
38.0361108779907	43.89408
38.0517408847809	46.21376
38.0673608779907	47.25739
38.0829908847809	47.29209
38.098620891571	46.66928
38.1142408847809	45.77394
38.129870891571	44.92854
38.1454908847809	44.29705
38.161120891571	43.81643
38.1767408847809	43.2044
38.192370891571	42.10238
38.2080008983612	40.15379
38.223620891571	37.2393
38.2392508983612	33.48054
38.254870891571	29.21257
38.2705008983612	24.79146
38.286120891571	20.46766
38.3017508983612	16.25439
38.3173809051514	11.96954
38.3330008983612	7.346197
38.3486309051514	2.161565
38.3642508983612	-3.66249
38.3798809051514	-9.988289
38.3955008983612	-16.49331
38.4111309051514	-22.67298
38.4267609119415	-27.91108
38.4423809051514	-31.5595
38.4580109119415	-33.08057
38.4736309051514	-32.1423
38.4892609119415	-28.76888
38.5048809051514	-23.31611
38.5205109119415	-16.42078
38.5361409187317	-8.831453
38.5517609119415	-1.246685
38.5673909187317	5.82478
38.5830109119415	12.09642
38.5986409187317	17.43805
38.6142609119415	21.83554
38.6298909187317	25.26083
38.6455209255219	27.69604
38.6611409187317	29.14182
38.6767709255219	29.66783
38.6923909187317	29.47423
38.7080209255219	28.85583
38.7236409187317	28.13226
38.7392709255219	27.51761
38.754900932312	27.08357
38.7705209255219	26.7151
38.786150932312	26.23516
38.8017709255219	25.47688
38.817400932312	24.35589
38.8330209255219	22.88678
38.848650932312	21.15472
38.8642809391022	19.2243
38.879900932312	17.15651
38.8955309391022	14.97154
38.911150932312	12.6884
38.9267809391022	10.32612
38.942400932312	7.912807
38.9580309391022	5.420914
38.9736609458923	2.792206
38.9892809391022	-0.06629944
39.0049109458923	-3.170689
39.0205309391022	-6.371086
39.0361609458923	-9.277626
39.0517809391022	-11.35143
39.0674109458923	-11.98317
39.0830409526825	-10.70469
39.0986609458923	-7.339199
39.1142909526825	-2.032558
39.1299109458923	4.782749
39.1455409526825	12.52617
39.1611609458923	20.62447
39.1767909526825	28.60467
39.1924209594727	36.09481
39.2080409526825	42.85083
39.2236709594727	48.67875
39.2392909526825	53.42944
39.2549209594727	57.01745
39.2705409526825	59.37404
39.2861709594727	60.49669
39.3018009662628	60.46983
39.3174209594727	59.46717
39.3330509662628	57.71571
39.3486709594727	55.49461
39.3643009662628	53.04003
39.3799209594727	50.50982
39.3955509662628	47.94318
39.411180973053	45.31176
39.4268009662628	42.51446
39.442430973053	39.46029
39.4580509662628	36.09923
39.473680973053	32.42679
39.4893009662628	28.48458
39.504930973053	24.36726
39.5205609798431	20.17043
39.536180973053	15.97344
39.5518109798431	11.76988
39.567430973053	7.493764
39.5830609798431	3.026265
39.598680973053	-1.740278
39.6143109798431	-6.836115
39.6299409866333	-12.17311
39.6455609798431	-17.52205
39.6611909866333	-22.56346
39.6768109798431	-26.8744
39.6924409866333	-30.00386
39.7080609798431	-31.5223
39.7236909866333	-31.15053
39.7393209934235	-28.88247
39.7549409866333	-25.02908
39.7705709934235	-20.21304
39.7861909866333	-15.14763
39.8018209934235	-10.43784
39.8174409866333	-6.39045
39.8330709934235	-3.032883
39.8487010002136	-0.2292709
39.8643209934235	2.106728
39.8799510002136	3.890373
39.8955709934235	4.878891
39.9112010002136	4.823029
39.9268310070038	3.690468
39.9424510002136	1.706001
39.9580810070038	-0.6394043
39.9737010002136	-2.821037
39.9893310070038	-4.486763
40.0049510002136	-5.613647
40.0205810070038	-6.491325
40.0362110137939	-7.56398
40.0518310070038	-9.2565
40.0674610137939	-11.76808
40.0830810070038	-15.02489
40.0987110137939	-18.74754
40.1143310070038	-22.56693
40.1299610137939	-26.2113
40.1455910205841	-29.54398
40.1612110137939	-32.57362
40.1768410205841	-35.38089
40.1924610137939	-38.06084
40.2080910205841	-40.71982
40.2237110137939	-43.50191
40.2393410205841	-46.55504
40.2549710273743	-50.00154
40.2705910205841	-53.78494
40.2862210273743	-57.59035
40.3018410205841	-60.82692
40.3174710273743	-62.76219
40.3330910205841	-62.73392
40.3487210273743	-60.4361
40.3643510341644	-55.99919
40.3799710273743	-49.96732
40.3956010341644	-43.071
40.4112210273743	-36.02066
40.4268510341644	-29.2646
40.4424710273743	-23.03061
40.4581010341644	-17.38333
40.4737310409546	-12.36432
40.4893510341644	-8.087585
40.5049810409546	-4.688736
40.5206010341644	-2.227158
40.5362310409546	-0.5851593
40.5518510341644	0.5272369
40.5674810409546	1.477798
40.5831110477448	2.528198
40.5987310409546	3.693329
40.6143610477448	4.762268
40.6299810409546	5.409317
40.6456110477448	5.396133
40.6612310409546	4.716705
40.6768610477448	3.621735
40.6924910545349	2.479431
40.7081110477448	1.586655
40.7237410545349	0.9696045
40.7393610477448	0.3508606
40.7549910545349	-0.7412262
40.7706110477448	-2.736526
40.7862410545349	-5.815872
40.8018710613251	-9.794815
40.8174910545349	-14.16402
40.8331210613251	-18.23441
40.8487410545349	-21.36903
40.8643710613251	-23.10201
40.8799910545349	-23.22464
40.8956210613251	-21.73648
40.9112510681152	-18.78191
40.9268710613251	-14.56554
40.9425010681152	-9.334015
40.9581210613251	-3.373856
40.9737510681152	3.006638
40.9893710613251	9.494492
41.0050010681152	15.76247
41.0206310749054	21.49269
41.0362510681152	26.40385
41.0518810749054	30.2646
41.0675010681152	32.94154
41.0831310749054	34.43295
41.0987510681152	34.86061
41.1143810749054	34.47729
41.1300110816956	33.59315
41.1456310749054	32.45938
41.1612610816956	31.217
41.1768810749054	29.86156
41.1925110816956	28.2751
41.2081310749054	26.32239
41.2237610816956	23.9286
41.2393910884857	21.12779
41.2550110816956	18.0247
41.2706410884857	14.71303
41.2862610816956	11.226
41.3018910884857	7.517624
41.3175110816956	3.491241
41.3331410884857	-0.9393616
41.3487710952759	-5.763412
41.3643910884857	-10.8493
41.3800210952759	-15.9122
41.3956410884857	-20.54506
41.4112710952759	-24.26096
41.4268910884857	-26.53885
41.4425210952759	-26.92775
41.458151102066	-25.14026
41.4737710952759	-21.17058
41.489401102066	-15.2912
41.5050210952759	-8.038712
41.520651102066	-0.1149139
41.5362710952759	7.777664
41.551901102066	15.01563
41.5675311088562	21.15547
41.583151102066	25.92557
41.5987811088562	29.22134
41.614401102066	31.04526
41.6300311088562	31.53629
41.645651102066	30.90341
41.6612811088562	29.42984
41.6769108772278	27.43593
41.6925311088562	25.18468
41.7081608772278	22.83945
41.7237811088562	20.39938
41.7394108772278	17.7437
41.7550311088562	14.7515
41.7706608772278	11.36943
41.7862908840179	7.657669
41.8019108772278	3.744385
41.8175408840179	-0.2008362
41.8331608772278	-4.119171
41.8487908840179	-8.046005
41.8644108772278	-12.09119
41.8800408840179	-16.39915
41.8956708908081	-21.0878
41.9112908840179	-26.16145
41.9269208908081	-31.50299
41.9425408840179	-36.81946
41.9581708908081	-41.63731
41.9737908840179	-45.40312
41.9894208908081	-47.64186
42.0050508975983	-48.09027
42.0206708908081	-46.85803
42.0363008975983	-44.32004
42.0519208908081	-40.94119
42.0675508975983	-37.07248
42.0831708908081	-32.81856
42.0988008975983	-28.10916
42.1144309043884	-22.95659
42.1300508975983	-17.56297
42.1456809043884	-12.44893
42.1613008975983	-8.274933
42.1769309043884	-5.623764
42.1925508975983	-4.708023
42.2081809043884	-5.297974
42.2238109111786	-6.783829
42.2394309043884	-8.443848
42.2550609111786	-9.665375
42.2706809043884	-10.12543
42.2863109111786	-9.797546
42.3019309043884	-8.896835
42.3175609111786	-7.714417
42.3331909179688	-6.506683
42.3488109111786	-5.421783
42.3644409179688	-4.529572
42.3800609111786	-3.905029
42.3956909179688	-3.707169
42.4113109111786	-4.170334
42.4269409179688	-5.556702
42.4425709247589	-8.061432
42.4581909179688	-11.73743
42.4738209247589	-16.40719
42.4894409179688	-21.67699
42.5050709247589	-26.97055
42.5206909179688	-31.63132
42.5363209247589	-35.06197
42.5519509315491	-36.81698
42.5675709247589	-36.71921
42.5832009315491	-34.80405
42.5988209247589	-31.26229
42.6144509315491	-26.32737
42.6300809383392	-20.20549
42.6457009315491	-13.09028
42.6613309383392	-5.226013
42.6769509315491	2.962975
42.6925809383392	10.85842
42.7082009315491	17.73539
42.7238309383392	22.96466
42.7394609451294	26.23354
42.7550809383392	27.63295
42.7707109451294	27.61342
42.7863309383392	26.81179
42.8019609451294	25.78711
42.8175809383392	24.88442
42.8332109451294	24.17033
42.8488409519196	23.45546
42.8644609451294	22.48494
42.8800909519196	21.05289
42.8957109451294	19.11359
42.9113409519196	16.74157
42.9269609451294	14.10976
42.9425909519196	11.35323
42.9582209587097	8.520401
42.9738409519196	5.551338
42.9894709587097	2.285286
43.0050909519196	-1.429279
43.0207209587097	-5.71999
43.0363409519196	-10.60011
43.0519709587097	-15.93521
43.0676009654999	-21.40815
43.0832209587097	-26.54861
43.0988509654999	-30.73462
43.1144709587097	-33.32619
43.1301009654999	-33.82439
43.1457209587097	-31.99925
43.1613509654999	-27.99614
43.17698097229	-22.27026
43.1926009654999	-15.47512
43.20823097229	-8.222198
43.2238509654999	-1.003225
43.23948097229	5.852427
43.2551009654999	12.11068
43.27073097229	17.53736
43.2863609790802	21.88539
43.30198097229	24.91805
43.3176109790802	26.53853
43.33323097229	26.87667
43.3488609790802	26.25827
43.36448097229	25.1384
43.3801109790802	23.96915
43.3957409858704	23.05577
43.4113609790802	22.47674
43.4269909858704	22.09776
43.4426109790802	21.66919
43.4582409858704	20.92805
43.4738609790802	19.72646
43.4894909858704	18.07138
43.5051209926605	16.1398
43.5207409858704	14.18676
43.5363709926605	12.43402
43.5519909858704	10.94532
43.5676209926605	9.56636
43.5832409858704	8.004684
43.5988709926605	5.888474
43.6145009994507	2.957565
43.6301209926605	-0.8704605
43.6457509994507	-5.396019
43.6613709926605	-10.15647
43.6770009994507	-14.45902
43.6926209926605	-17.53051
43.7082509994507	-18.64788
43.7238810062408	-17.32803
43.7395009994507	-13.48575
43.7551310062408	-7.449402
43.7707509994507	0.09583282
43.7863810062408	8.35611
43.8020009994507	16.62164
43.8176310062408	24.42226
43.833261013031	31.53883
43.8488810062408	37.83288
43.864511013031	43.1433
43.8801310062408	47.18387
43.895761013031	49.64575
43.9113810062408	50.38082
43.927011013031	49.51783
43.9426410198212	47.48392
43.958261013031	44.89828
43.9738910198212	42.33506
43.989511013031	40.14001
44.0051410198212	38.36202
44.020761013031	36.77502
44.0363910198212	35.04699
44.0520210266113	32.87225
44.0676410198212	30.096
44.0832710266113	26.76757
44.0988910198212	23.08835
44.1145210266113	19.32648
44.1301410198212	15.69095
44.1457710266113	12.25864
44.1614010334015	8.945221
44.1770210266113	5.579735
44.1926510334015	1.996948
44.2082710266113	-1.927422
44.2239010334015	-6.236931
44.2395210266113	-10.89877
44.2551510334015	-15.80294
44.2707810401917	-20.72076
44.2864010334015	-25.22003
44.3020310401917	-28.69802
44.3176510334015	-30.46704
44.3332810401917	-29.95707
44.3489010334015	-26.98082
44.3645310401917	-21.79879
44.3801610469818	-15.05984
44.3957810401917	-7.590927
44.4114110469818	-0.1304169
44.4270310401917	6.869934
44.4426610469818	13.21521
44.4582810401917	18.86067
44.4739110469818	23.75492
44.489541053772	27.72622
44.5051610469818	30.52753
44.520791053772	31.96041
44.5364110469818	32.00489
44.552041053772	30.88176
44.5676610469818	29.02363
44.583291053772	26.93901
44.5989210605621	25.04119
44.614541053772	23.53017
44.6301710605621	22.35948
44.645791053772	21.30455
44.6614210605621	20.08014
44.677041053772	18.4682
44.6926710605621	16.39093
44.7083010673523	13.91264
44.7239210605621	11.16485
44.7395510673523	8.264206
44.7551710605621	5.277124
44.7708010673523	2.191729
44.7864310741425	-1.003925
44.8020510673523	-4.304893
44.8176810741425	-7.671391
44.8333010673523	-11.10537
44.8489310741425	-14.6682
44.8645510673523	-18.49246
44.8801810741425	-22.65009
44.8958110809326	-26.9863
44.9114310741425	-30.98141
44.9270610809326	-33.83676
44.9426810741425	-34.65488
44.9583110809326	-32.85982
44.9739310741425	-28.45157
44.9895610809326	-22.06312
45.0051910877228	-14.71874
45.0208110809326	-7.465836
45.0364410877228	-0.9756126
45.0520610809326	4.570397
45.0676910877228	9.368658
45.0833110809326	13.67901
45.0989410877228	17.58497
45.1145710945129	20.88707
45.1301910877228	23.23982
45.1458210945129	24.37193
45.1614410877228	24.27767
45.1770710945129	23.24592
45.1926910877228	21.7437
45.2083210945129	20.18725
45.2239511013031	18.81806
45.2395710945129	17.63715
45.2552011013031	16.47956
45.2708210945129	15.1394
45.2864511013031	13.47579
45.3020710945129	11.43414
45.3177011013031	9.062603
45.3333311080933	6.454845
45.3489511013031	3.751465
45.3645811080933	1.080482
45.3802011013031	-1.445465
45.3958311080933	-3.81778
45.4114511013031	-6.097672
45.4270811080933	-8.473907
45.4427108764648	-11.14671
45.4583311080933	-14.28266
45.4739608764648	-17.91739
45.4895811080933	-21.9445
45.5052108764648	-26.07569
45.5208311080933	-29.88793
45.5364608764648	-32.83945
45.552090883255	-34.39847
45.5677108764648	-34.17315
45.583340883255	-32.0582
45.5989608764648	-28.29408
45.614590883255	-23.41157
45.6302108764648	-18.02969
45.645840883255	-12.65408
45.6614708900452	-7.559006
45.677090883255	-2.849442
45.6927208900452	1.407684
45.708340883255	5.005318
45.7239708900452	7.618637
45.739590883255	8.903488
45.7552208900452	8.773125
45.7708508968353	7.455879
45.7864708900452	5.489876
45.8021008968353	3.468262
45.8177208900452	1.81778
45.8333508968353	0.6302948
45.8489708900452	-0.2910614
45.8646008968353	-1.288589
45.8802309036255	-2.620544
45.8958508968353	-4.34584
45.9114809036255	-6.346222
45.9271008968353	-8.440292
45.9427309036255	-10.46866
45.9583508968353	-12.36978
45.9739809036255	-14.15779
45.9896109104156	-15.87556
46.0052309036255	-17.53993
46.0208609104156	-19.18401
46.0364809036255	-20.82759
46.0521109104156	-22.55244
46.0677309036255	-24.41725
46.0833609104156	-26.38631
46.0989909172058	-28.27856
46.1146109104156	-29.70503
46.1302409172058	-30.23196
46.1458609104156	-29.51157
46.1614909172058	-27.47115
46.1771109104156	-24.32295
46.1927409172058	-20.4623
46.208370923996	-16.27975
46.2239909172058	-11.95233
46.239620923996	-7.458374
46.2552409172058	-2.687607
46.270870923996	2.347
46.2864909172058	7.381927
46.302120923996	11.9091
46.3177509307861	15.42755
46.333370923996	17.64552
46.3490009307861	18.66293
46.364620923996	18.91583
46.3802509307861	18.93193
46.395870923996	19.11356
46.4115009307861	19.55087
46.4271309375763	20.06851
46.4427509307861	20.38527
46.4583809375763	20.33231
46.4740009307861	19.91432
46.4896309375763	19.27148
46.5052509307861	18.56358
46.5208809375763	17.83734
46.5365109443665	17.02499
46.5521309375763	15.92207
46.5677609443665	14.27495
46.5833809375763	11.81839
46.5990109443665	8.343918
46.6146309375763	3.705505
46.6302609443665	-2.090378
46.6458909511566	-8.839966
46.6615109443665	-16.10147
46.6771409511566	-23.24487
46.6927609443665	-29.57767
46.7083909511566	-34.48409
46.7240109443665	-37.58263
46.7396409511566	-38.76814
46.7552709579468	-38.21233
46.7708909511566	-36.25099
46.7865209579468	-33.28403
46.8021409511566	-29.67531
46.8177709579468	-25.70192
46.8333909511566	-21.59116
46.8490209579468	-17.59769
46.8646509647369	-14.01768
46.8802709579468	-11.18039
46.8959009647369	-9.324265
46.9115209579468	-8.476105
46.9271509647369	-8.403259
46.9427709579468	-8.698288
46.9584009647369	-8.954163
46.9740309715271	-8.950958
46.9896509647369	-8.737625
47.0052809715271	-8.584427
47.0209009647369	-8.797562
47.0365309715271	-9.580429
47.0521509647369	-10.91374
47.0677809715271	-12.59132
47.0834109783173	-14.31364
47.0990309715271	-15.85228
47.1146609783173	-17.09799
47.1302809715271	-18.13043
47.1459109783173	-19.16191
47.1615309715271	-20.44987
47.1771609783173	-22.19618
47.1927909851074	-24.49309
47.2084109783173	-27.25145
47.2240409851074	-30.21201
47.2396609783173	-32.98506
47.2552909851074	-35.14122
47.2709109783173	-36.252
47.2865409851074	-35.99179
47.3021709918976	-34.17113
47.3177909851074	-30.75401
47.3334209918976	-25.8793
47.3490409851074	-19.84085
47.3646709918976	-13.04517
47.3803009986877	-5.965744
47.3959209918976	0.9219666
47.4115509986877	7.181793
47.4271709918976	12.47706
47.4428009986877	16.55315
47.4584209918976	19.25446
47.4740509986877	20.55599
47.4896810054779	20.5847
47.5053009986877	19.64919
47.5209310054779	18.20727
47.5365509986877	16.74881
47.5521810054779	15.65939
47.5678009986877	15.07635
47.5834310054779	14.84589
47.5990610122681	14.62651
47.6146810054779	14.05997
47.6303110122681	12.93149
47.6459310054779	11.29255
47.6615610122681	9.382805
47.6771810054779	7.522888
47.6928110122681	5.916962
47.7084410190582	4.592934
47.7240610122681	3.380585
47.7396910190582	1.970695
47.7553110122681	0.06826019
47.7709410190582	-2.560181
47.7865610122681	-5.928291
47.8021910190582	-9.84354
47.8178210258484	-13.86132
47.8334410190582	-17.38148
47.8490710258484	-19.69991
47.8646910190582	-20.17582
47.8803210258484	-18.37436
47.8959410190582	-14.19772
47.9115710258484	-8.006042
47.9272010326385	-0.504261
47.9428210258484	7.390549
47.9584510326385	14.8145
47.9740710258484	21.16331
47.9897010326385	26.16547
48.0053210258484	29.81399
48.0209510326385	32.17277
48.0365810394287	33.2372
48.0522010326385	32.91026
48.0678310394287	31.14526
48.0834510326385	28.10546
48.0990810394287	24.27104
48.1147010326385	20.3342
48.1303310394287	16.93511
48.1459610462189	14.41279
48.1615810394287	12.69502
48.1772110462189	11.37901
48.1928310394287	9.990794
48.2084610462189	8.216514
48.2240810394287	6.011306
48.2397110462189	3.563809
48.255341053009	1.175525
48.2709610462189	-0.9192208
48.286591053009	-2.586213
48.3022110462189	-3.789425
48.317841053009	-4.592206
48.3334610462189	-5.127579
48.349091053009	-5.618272
48.3647210597992	-6.336924
48.380341053009	-7.546794
48.3959710597992	-9.381478
48.411591053009	-11.80989
48.4272210597992	-14.58517
48.442841053009	-17.28696
48.4584710597992	-19.36045
48.4741010665894	-20.21752
48.4897210597992	-19.34564
48.5053510665894	-16.38379
48.5209710597992	-11.28449
48.5366010665894	-4.353104
48.5522210597992	3.798504
48.5678510665894	12.3853
48.5834810733795	20.66738
48.5991010665894	28.11677
48.6147310733795	34.47769
48.6303510665894	39.69596
48.6459810733795	43.75908
48.6616010665894	46.63195
48.6772310733795	48.24823
48.6928610801697	48.60772
48.7084810733795	47.87711
48.7241110801697	46.40059
48.7397310733795	44.60925
48.7553610801697	42.86645
48.7709810733795	41.33425
48.7866110801697	39.94389
48.8022410869598	38.50826
48.8178610801697	36.80534
48.8334910869598	34.73153
48.8491110801697	32.3103
48.8647410869598	29.64612
48.8803610801697	26.87034
48.8959910869598	24.07137
48.91162109375	21.29877
48.9272410869598	18.5274
48.94287109375	15.68593
48.9584910869598	12.64653
48.97412109375	9.271046
48.9897410869598	5.428131
49.00537109375	1.050533
49.0210011005402	-3.833941
49.03662109375	-9.064095
49.0522511005402	-14.317
49.06787109375	-19.07555
49.0835011005402	-22.71532
49.09912109375	-24.61374
49.1147511005402	-24.32499
49.1303811073303	-21.77264
49.1460011005402	-17.31205
49.1616311073303	-11.62226
49.1772511005402	-5.499643
49.1928811073303	0.4163508
49.2085011005402	5.799297
49.2241311073303	10.5859
49.2397611141205	14.82838
49.2553811073303	18.524
49.2710111141205	21.52011
49.2866311073303	23.61652
49.3022611141205	24.71749
49.3178811073303	24.92939
49.3335111141205	24.5667
49.3491408824921	24.02518
49.3647611141205	23.57684
49.3803908824921	23.2598
49.3960111141205	22.8922
49.4116408824921	22.17901
49.4272611141205	20.83741
49.4428908824921	18.76239
49.4585208892822	16.00249
49.4741408824921	12.75895
49.4897708892822	9.257885
49.5053908824921	5.671497
49.5210208892822	2.075523
49.5366408824921	-1.51659
49.5522708892822	-5.178886
49.5679008960724	-8.957092
49.5835208892822	-12.89664
49.5991508960724	-17.01476
49.6147708892822	-21.31113
49.6304008960724	-25.71021
49.6460309028625	-30.03912
49.6616508960724	-33.95524
49.6772809028625	-36.96215
49.6929008960724	-38.49009
49.7085309028625	-38.05838
49.7241508960724	-35.47781
49.7397809028625	-30.92535
49.7554109096527	-24.92632
49.7710309028625	-18.18096
49.7866609096527	-11.35635
49.8022809028625	-4.946358
49.8179109096527	0.756424
49.8335309028625	5.54921
49.8491609096527	9.25724
49.8647909164429	11.68494
49.8804109096527	12.6825
49.8960409164429	12.30542
49.9116609096527	10.85104
49.9272909164429	8.817101
49.9429109096527	6.762405
49.9585409164429	5.07225
49.974170923233	3.882233
49.9897909164429	3.08812
50.005420923233	2.486008
50.0210409164429	1.890152
50.036670923233	1.219543
50.0522909164429	0.4224243
50.067920923233	-0.5395355
50.0835509300232	-1.760406
50.099170923233	-3.331604
50.1148009300232	-5.33609
50.130420923233	-7.773331
50.1460509300232	-10.60695
50.161670923233	-13.7729
50.1773009300232	-17.16568
50.1929309368134	-20.64563
50.2085509300232	-23.90555
50.2241809368134	-26.4763
50.2398009300232	-27.7841
50.2554309368134	-27.35046
50.2710509300232	-24.98529
50.2866809368134	-20.9418
50.3023109436035	-15.83571
50.3179309368134	-10.47224
50.3335609436035	-5.587036
50.3491809368134	-1.649948
50.3648109436035	1.207764
50.3804309368134	3.091248
50.3960609436035	4.178543
50.4116909503937	4.611389
50.4273109436035	4.408859
50.4429409503937	3.529892
50.4585609436035	1.983688
50.4741909503937	-0.1199036
50.4898109436035	-2.586258
50.5054409503937	-5.242432
50.5210709571838	-8.035934
50.5366909503937	-11.05461
50.5523209571838	-14.48032
50.5679409503937	-18.42766
50.5835709571838	-22.83238
50.5991909503937	-27.44656
50.6148209571838	-31.90991
50.630450963974	-35.92021
50.6460709571838	-39.35226
50.661700963974	-42.31761
50.6773209571838	-45.08351
50.692950963974	-47.98979
50.7085709571838	-51.29611
50.724200963974	-55.11191
50.7398309707642	-59.33667
50.755450963974	-63.61415
50.7710809707642	-67.35033
50.786700963974	-69.78023
50.8023309707642	-70.14195
50.817950963974	-67.88446
50.8335809707642	-62.88367
50.8492109775543	-55.54041
50.8648309707642	-46.63637
50.8804609775543	-37.13696
50.8960809707642	-27.86552
50.9117109775543	-19.35027
50.9273309707642	-11.81152
50.9429609775543	-5.31926
50.9585909843445	0.07971191
50.9742109775543	4.305496
50.9898409843445	7.313766
51.0054609775543	9.207031
51.0210909843445	10.30634
51.0367109775543	11.07209
51.0523409843445	11.92222
51.0679709911346	13.03665
51.0835909843445	14.3133
51.0992209911346	15.43195
51.1148409843445	16.08212
51.1304709911346	16.12619
51.1460909843445	15.65379
51.1617209911346	14.88179
51.1773509979248	14.04015
51.1929709911346	13.22369
51.2086009979248	12.39932
51.2242209911346	11.47089
51.2398509979248	10.28644
51.2554709911346	8.692795
51.2711009979248	6.502197
51.286731004715	3.550953
51.3023509979248	-0.2016983
51.317981004715	-4.51722
51.3336009979248	-8.812435
51.349231004715	-12.23272
51.3648509979248	-13.8828
51.380481004715	-13.17724
51.3961110115051	-10.02471
51.411731004715	-4.865795
51.4273610115051	1.53087
51.442981004715	8.340305
51.4586110115051	14.90647
51.474231004715	20.84657
51.4898610115051	25.98412
51.5054910182953	30.2109
51.5211110115051	33.38841
51.5367410182953	35.37075
51.5523610115051	36.05256
51.5679910182953	35.52377
51.5836110115051	34.07546
51.5992410182953	32.11105
51.6148710250854	30.04291
51.6304910182953	28.09908
51.6461210250854	26.26298
51.6617410182953	24.32357
51.6773710250854	22.04024
51.6929910182953	19.321
51.7086210250854	16.25166
51.7242510318756	13.09993
51.7398710250854	10.15366
51.7555010318756	7.589569
51.7711210250854	5.421883
51.7867510318756	3.511208
51.8023710250854	1.637966
51.8180010318756	-0.4210205
51.8336310386658	-2.838852
51.8492510318756	-5.718372
51.8648810386658	-8.960522
51.8805010318756	-12.23504
51.8961310386658	-14.95308
51.9117610454559	-16.40274
51.9273810386658	-15.95362
51.9430110454559	-13.2632
51.9586310386658	-8.407726
51.9742610454559	-1.845547
51.9898810386658	5.73315
52.0055110454559	13.68584
52.0211410522461	21.48584
52.0367610454559	28.83279
52.0523910522461	35.54111
52.0680110454559	41.45225
52.0836410522461	46.38207
52.0992610454559	50.11303
52.1148910522461	52.515
52.1305210590363	53.64268
52.1461410522461	53.76839
52.1617710590363	53.28416
52.1773910522461	52.56535
52.1930210590363	51.8331
52.2086410522461	51.02177
52.2242710590363	49.88758
52.2399010658264	48.12894
52.2555210590363	45.56931
52.2711510658264	42.2898
52.2867710590363	38.63357
52.3024010658264	35.0255
52.3180210590363	31.77404
52.3336510658264	28.91765
52.3492810726166	26.17061
52.3649010658264	23.04976
52.3805310726166	19.08999
52.3961510658264	14.07484
52.4117810726166	8.174629
52.4274010658264	1.950474
52.4430310726166	-3.781773
52.4586610794067	-8.172035
52.4742810726166	-10.53859
52.4899110794067	-10.55262
52.5055310726166	-8.25934
52.5211610794067	-4.099659
52.5367810726166	1.220909
52.5524110794067	6.864658
52.5680410861969	12.05608
52.5836610794067	16.27164
52.5992910861969	19.3504
52.6149110794067	21.43314
52.6305410861969	22.81392
52.6461610794067	23.71695
52.6617910861969	24.18199
52.6774210929871	24.02739
52.6930410861969	23.02724
52.7086710929871	21.07863
52.7242910861969	18.36067
52.7399210929871	15.27507
52.7555410861969	12.30726
52.7711710929871	9.781404
52.7868010997772	7.762962
52.8024210929871	6.026974
52.8180510997772	4.242329
52.8336710929871	2.137577
52.8493010997772	-0.3449173
52.8649210929871	-3.075459
52.8805510997772	-5.825352
52.8961811065674	-8.454758
52.9118010997772	-11.01956
52.9274311065674	-13.77213
52.9430510997772	-17.03714
52.9586811065674	-21.0824
52.9743010997772	-25.96368
52.9899311065674	-31.493
53.0055611133575	-37.20519
53.0211811065674	-42.4429
53.0368111133575	-46.44755
53.0524311065674	-48.54593
53.0680611133575	-48.311
53.0836811065674	-45.72507
53.0993111133575	-41.15456
53.1149408817291	-35.20427
53.1305611133575	-28.49506
53.1461908817291	-21.48689
53.1618111133575	-14.43658
53.1774408817291	-7.50769
53.1930611133575	-0.9434586
53.2086908817291	4.856415
53.2243208885193	9.374298
53.2399408817291	12.19072
53.2555708885193	13.19376
53.2711908817291	12.64403
53.2868208885193	11.10895
53.3024408817291	9.202072
53.3180708885193	7.401138
53.3337008953094	5.86525
53.3493208885193	4.494003
53.3649508953094	3.053268
53.3805708885193	1.284195
53.3962008953094	-0.9711151
53.4118208885193	-3.731247
53.4274508953094	-6.87886
53.4430809020996	-10.20627
53.4587008953094	-13.5049
53.4743309020996	-16.66051
53.4899508953094	-19.72531
53.5055809020996	-22.89919
53.5212008953094	-26.49117
53.5368309020996	-30.74011
53.5524609088898	-35.74187
53.5680809020996	-41.32404
53.5837109088898	-47.06668
53.5993309020996	-52.36884
53.6149609088898	-56.56662
53.6305809020996	-59.02777
53.6462109088898	-59.26555
53.6618409156799	-57.02605
53.6774609088898	-52.35649
53.6930909156799	-45.67883
53.7087109088898	-37.68988
53.7243409156799	-29.23154
53.7399609088898	-21.09366
53.7555909156799	-13.81192
53.7712209224701	-7.68782
53.7868409156799	-2.84259
53.8024709224701	0.6495209
53.8180909156799	2.712921
53.8337209224701	3.322418
53.8493409156799	2.591614
53.8649709224701	0.8773041
53.8806009292603	-1.285431
53.8962209224701	-3.29538
53.9118509292603	-4.743912
53.9274709224701	-5.484238
53.9431009292603	-5.689941
53.9587209224701	-5.678284
53.9743509292603	-5.760223
53.9899809360504	-6.086121
54.0056009292603	-6.629974
54.0212309360504	-7.293915
54.0368509292603	-7.997772
54.0524809360504	-8.799484
54.0681009292603	-9.843231
54.0837309360504	-11.29517
54.0993609428406	-13.27864
54.1149809360504	-15.81522
54.1306109428406	-18.84431
54.1462309360504	-22.22356
54.1618609428406	-25.757
54.1774809360504	-29.07923
54.1931109428406	-31.70683
54.2087409496307	-33.05899
54.2243609428406	-32.63948
54.2399909496307	-30.23054
54.2556109428406	-25.93682
54.2712409496307	-20.16849
54.2868609428406	-13.47146
54.3024909496307	-6.359047
54.3181209564209	0.7554092
54.3337409496307	7.503944
54.3493709564209	13.5008
54.3649909496307	18.31459
54.3806209564209	21.53967
54.3962409496307	22.98553
54.4118709564209	22.75768
54.4275009632111	21.33701
54.4431209564209	19.37579
54.4587509632111	17.50922
54.4743709564209	16.09782
54.4900009632111	15.18011
54.5056209564209	14.51531
54.5212509632111	13.79009
54.5368809700012	12.78422
54.5525009632111	11.46345
54.5681309700012	9.928642
54.5837509632111	8.281982
54.5993809700012	6.553764
54.6150109767914	4.63282
54.6306309700012	2.370365
54.6462609767914	-0.3041611
54.6618809700012	-3.34267
54.6775109767914	-6.550571
54.6931309700012	-9.652977
54.7087609767914	-12.3428
54.7243909835815	-14.30246
54.7400109767914	-15.23367
54.7556409835815	-14.8742
54.7712609767914	-13.06837
54.7868909835815	-9.783747
54.8025109767914	-5.167843
54.8181409835815	0.5280781
54.8337709903717	7.024504
54.8493909835815	14.04796
54.8650209903717	21.358
54.8806409835815	28.70901
54.8962709903717	35.80626
54.9118909835815	42.25104
54.9275209903717	47.60031
54.9431509971619	51.4702
54.9587709903717	53.66118
54.9744009971619	54.2372
54.9900209903717	53.52699
55.0056509971619	52.07014
55.0212709903717	50.41473
55.0369009971619	48.92106
55.052531003952	47.66544
55.0681509971619	46.42958
55.083781003952	44.83239
55.0994009971619	42.58611
55.115031003952	39.6106
55.1306509971619	36.09032
55.146281003952	32.34909
55.1619110107422	28.65545
55.177531003952	25.10292
55.1931610107422	21.53314
55.208781003952	17.67589
55.2244110107422	13.2897
55.240031003952	8.282391
55.2556610107422	2.810312
55.2712910175323	-2.724338
55.2869110107422	-7.747711
55.3025410175323	-11.59726
55.3181610107422	-13.66602
55.3337910175323	-13.56991
55.3494110107422	-11.20363
55.3650410175323	-6.83865
55.3806710243225	-1.031271
55.3962910175323	5.508703
55.4119210243225	12.12216
55.4275410175323	18.28804
55.4431710243225	23.70796
55.4587910175323	28.19935
55.4744210243225	31.61707
55.4900510311127	33.77206
55.5056710243225	34.48581
55.5213010311127	33.70483
55.5369210243225	31.62334
55.5525510311127	28.72176
55.5681710243225	25.63749
55.5838010311127	22.92707
55.5994310379028	20.89087
55.6150510311127	19.41412
55.6306810379028	18.09972
55.6463010311127	16.43714
55.6619310379028	14.04662
55.6775510311127	10.8037
55.6931810379028	6.850563
55.708811044693	2.416687
55.7244310379028	-2.259766
55.740061044693	-7.068047
55.7556810379028	-11.96259
55.771311044693	-16.91169
55.7869310379028	-21.86765
55.802561044693	-26.76597
55.8181910514832	-31.54884
55.833811044693	-36.19192
55.8494410514832	-40.65553
55.865061044693	-44.78092
55.8806910514832	-48.26273
55.896311044693	-50.68936
55.9119410514832	-51.67795
55.9275710582733	-51.05152
55.9431910514832	-48.90124
55.9588210582733	-45.58438
55.9744410514832	-41.55731
55.9900710582733	-37.21552
56.0056910514832	-32.77769
56.0213210582733	-28.33612
56.0369510650635	-23.95171
56.0525710582733	-19.7974
56.0682010650635	-16.21654
56.0838210582733	-13.68493
56.0994510650635	-12.60708
56.1150710582733	-13.16296
56.1307010650635	-15.13434
56.1463310718536	-17.96757
56.1619510650635	-20.91474
56.1775810718536	-23.32394
56.1932010650635	-24.86916
56.2088310718536	-25.6824
56.2244510650635	-26.20435
56.2400810718536	-26.94929
56.2557110786438	-28.23542
56.2713310718536	-30.03442
56.2869610786438	-32.07411
56.3025810718536	-34.02979
56.3182110786438	-35.72514
56.3338310718536	-37.20005
56.3494610786438	-38.65585
56.365091085434	-40.31149
56.3807110786438	-42.27967
56.396341085434	-44.60056
56.4119610786438	-47.27687
56.427591085434	-50.3293
56.4432110786438	-53.69032
56.458841085434	-57.03368
56.4744710922241	-59.71996
56.490091085434	-60.90929
56.5057210922241	-59.79848
56.521341085434	-55.93587
56.5369710922241	-49.42387
56.552591085434	-40.86154
56.5682210922241	-31.08829
56.5838510990143	-20.90417
56.5994710922241	-10.85431
56.6151010990143	-1.222553
56.6307210922241	7.821274
56.6463510990143	16.08339
56.6619710922241	23.26084
56.6776010990143	29.02674
56.6932311058044	33.18694
56.7088510990143	35.78852
56.7244811058044	37.08049
56.7401010990143	37.42175
56.7557311058044	37.13865
56.7713611125946	36.42805
56.7869811058044	35.42971
56.8026111125946	34.18531
56.8182311058044	32.73712
56.8338611125946	31.13433
56.8494811058044	29.40091
56.8651111125946	27.54235
56.8807408809662	25.56134
56.8963611125946	23.45366
56.9119908809662	21.20492
56.9276111125946	18.75589
56.9432408809662	15.98987
56.9588611125946	12.74664
56.9744908809662	8.892784
56.9901208877563	4.34935
57.0057408809662	-0.8423576
57.0213708877563	-6.563057
57.0369908809662	-12.5384
57.0526208877563	-18.3262
57.0682408809662	-23.25468
57.0838708877563	-26.43428
57.0995008945465	-26.98925
57.1151208877563	-24.31557
57.1307508945465	-18.37932
57.1463708877563	-9.78677
57.1620008945465	0.3685455
57.1776208877563	10.88309
57.1932508945465	20.79903
57.2088809013367	29.61096
57.2245008945465	37.22583
57.2401309013367	43.72635
57.2557508945465	49.15718
57.2713809013367	53.32693
57.2870008945465	55.94302
57.3026309013367	56.70703
57.3182609081268	55.55447
57.3338809013367	52.74361
57.3495109081268	48.80035
57.3651309013367	44.38742
57.3807609081268	40.03714
57.3963809013367	36.03365
57.4120109081268	32.33234
57.427640914917	28.68382
57.4432609081268	24.806
57.458890914917	20.56184
57.4745109081268	16.04996
57.490140914917	11.52322
57.5057609081268	7.241295
57.521390914917	3.31778
57.5370209217072	-0.3307037
57.552640914917	-3.922043
57.5682709217072	-7.654984
57.583890914917	-11.65804
57.5995209217072	-15.96362
57.615140914917	-20.55035
57.6307709217072	-25.31496
57.6464009284973	-30.05622
57.6620209217072	-34.28412
57.6776509284973	-37.24639
57.6932709217072	-38.05236
57.7089009284973	-35.96339
57.7245209217072	-30.74104
57.7401509284973	-22.81203
57.7557809352875	-13.10863
57.7714009284973	-2.754044
57.7870309352875	7.333946
57.8026509284973	16.68138
57.8182809352875	25.23944
57.8339009284973	33.18105
57.8495309352875	40.64329
57.8651609420776	47.57468
57.8807809352875	53.73543
57.8964109420776	58.83725
57.9120309352875	62.6874
57.9276609420776	65.29973
57.9432809352875	66.898
57.9589109420776	67.79953
57.9745409488678	68.26468
57.9901609420776	68.3726
58.0057909488678	67.97785
58.0214109420776	66.8094
58.0370409488678	64.61502
58.0526609420776	61.31562
58.0682909488678	57.05328
58.083920955658	52.15012
58.0995409488678	46.96792
58.115170955658	41.79214
58.1307909488678	36.76179
58.146420955658	31.84138
58.1620409488678	26.87306
58.177670955658	21.63176
58.1933009624481	15.8798
58.208920955658	9.461384
58.2245509624481	2.419827
58.240170955658	-4.912334
58.2558009624481	-11.85534
58.271420955658	-17.5241
58.2870509624481	-21.06589
58.3026809692383	-21.9751
58.3183009624481	-20.29226
58.3339309692383	-16.55175
58.3495509624481	-11.59536
58.3651809692383	-6.233513
58.3808009624481	-1.017628
58.3964309692383	3.813189
58.4120609760284	8.208394
58.4276809692383	12.13731
58.4433109760284	15.43072
58.4589309692383	17.78355
58.4745609760284	18.87475
58.4901809692383	18.49112
58.5058109760284	16.67781
58.5214409828186	13.69934
58.5370609760284	9.945574
58.5526909828186	5.849495
58.5683109760284	1.717737
58.5839409828186	-2.293701
58.5995609760284	-6.208706
58.6151909828186	-10.14252
58.6308209896088	-14.21852
58.6464409828186	-18.46539
58.6620709896088	-22.79941
58.6776909828186	-27.05391
58.6933209896088	-31.10247
58.7089409828186	-34.93123
58.7245709896088	-38.69681
58.7402009963989	-42.65257
58.7558209896088	-47.00738
58.7714509963989	-51.83606
58.7870709896088	-57.05586
58.8027009963989	-62.47695
58.8183209896088	-67.8384
58.8339509963989	-72.81413
58.8495810031891	-76.93804
58.8652009963989	-79.59161
58.8808310031891	-80.06855
58.8964509963989	-77.86082
58.9120810031891	-72.90977
58.9277009963989	-65.76846
58.9433310031891	-57.49022
58.9589610099792	-49.2609
58.9745810031891	-41.93073
58.9902110099792	-35.79626
59.0058310031891	-30.60484
59.0214610099792	-25.92609
59.0370910167694	-21.51588
59.0527110099792	-17.49488
59.0683410167694	-14.26964
59.0839610099792	-12.23394
59.0995910167694	-11.46395
59.1152110099792	-11.63934
59.1308410167694	-12.18578
59.1464710235596	-12.56036
59.1620910167694	-12.47781
59.1777210235596	-12.05505
59.1933410167694	-11.67671
59.2089710235596	-11.81608
59.2245910167694	-12.7743
59.2402210235596	-14.56132
59.2558510303497	-16.89616
59.2714710235596	-19.38137
59.2871010303497	-21.64734
59.3027210235596	-23.54943
59.3183510303497	-25.16965
59.3339710235596	-26.77294
59.3496010303497	-28.64456
59.3652310371399	-30.96573
59.3808510303497	-33.76579
59.3964810371399	-36.98794
59.4121010303497	-40.51609
59.4277310371399	-44.16505
59.4433510303497	-47.59117
59.4589810371399	-50.24529
59.4746110439301	-51.37408
59.4902310371399	-50.24039
59.5058610439301	-46.40893
59.5214810371399	-39.9464
59.5371110439301	-31.47709
59.5527310371399	-21.94726
59.5683610439301	-12.33366
59.5839910507202	-3.382231
59.5996110439301	4.501353
59.6152410507202	11.20796
59.6308610439301	16.77841
59.6464910507202	21.25416
59.6621110439301	24.64684
59.6777410507202	26.93332
59.6933710575104	28.17288
59.7089910507202	28.51033
59.7246210575104	28.2496
59.7402410507202	27.78973
59.7558710575104	27.51177
59.7714910507202	27.63402
59.7871210575104	28.11061
59.8027510643005	28.64396
59.8183710575104	28.83199
59.8340010643005	28.36583
59.8496210575104	27.1609
59.8652510643005	25.38978
59.8808710575104	23.36713
59.8965010643005	21.35674
59.9121310710907	19.45814
59.9277510643005	17.56164
59.9433810710907	15.4448
59.9590010643005	12.85598
59.9746310710907	9.626442
59.9902510643005	5.68055
60.0058810710907	1.097839
60.0215110778809	-3.862617
60.0371310710907	-8.727425
60.0527610778809	-12.83489
60.0683810710907	-15.42188
60.0840110778809	-15.82926
60.0996310710907	-13.69703
60.1152610778809	-9.127266
60.130891084671	-2.640991
60.1465110778809	4.976387
60.162141084671	12.90095
60.1777610778809	20.52767
60.193391084671	27.54472
60.2090110778809	33.88014
60.224641084671	39.54103
60.2402710914612	44.45427
60.255891084671	48.37766
60.2715210914612	51.04353
60.287141084671	52.31819
60.3027710914612	52.28464
60.318391084671	51.34442
60.3340210914612	50.04639
60.3496510982513	48.85521
60.3652710914612	48.02014
60.3809010982513	47.46469
60.3965210914612	46.87781
60.4121510982513	45.86952
60.4277710914612	44.17516
60.4434010982513	41.78183
60.4590311050415	38.9267
60.4746510982513	35.99129
60.4902811050415	33.29033
60.5059010982513	30.95627
60.5215311050415	28.87442
60.5371510982513	26.75049
60.5527811050415	24.2261
60.5684111118317	21.00894
60.5840311050415	16.9274
60.5996611118317	12.02519
60.6152811050415	6.583969
60.6309111118317	1.141281
60.6465311050415	-3.542953
60.6621611118317	-6.661011
60.6777908802032	-7.559952
60.6934111118317	-5.97287
60.7090408802032	-2.125534
60.7246611118317	3.384048
60.7402908802032	9.802963
60.7559111118317	16.49326
60.7715408802032	23.0535
60.7871708869934	29.27948
60.8027908802032	35.00855
60.8184208869934	40.00946
60.8340408802032	43.97196
60.8496708869934	46.61803
60.8652908802032	47.83039
60.8809208869934	47.74355
60.8965508937836	46.71111
60.9121708869934	45.13919
60.9278008937836	43.37953
60.9434208869934	41.59764
60.9590508937836	39.79722
60.9746708869934	37.87767
60.9903008937836	35.73685
61.0059309005737	33.33588
61.0215508937836	30.7514
61.0371809005737	28.1123
61.0528008937836	25.53198
61.0684309005737	23.02344
61.0840508937836	20.45252
61.0996809005737	17.59763
61.1153109073639	14.16565
61.1309309005737	9.908962
61.1465609073639	4.669952
61.1621809005737	-1.553246
61.1778109073639	-8.578259
61.1934309005737	-16.00251
61.2090609073639	-23.18634
61.2246909141541	-29.33626
61.2403109073639	-33.63665
61.2559409141541	-35.4839
61.2715609073639	-34.64085
61.2871909141541	-31.37349
61.3028109073639	-26.35424
61.3184409141541	-20.47026
61.3340709209442	-14.53249
61.3496909141541	-9.08436
61.3653209209442	-4.305901
61.3809409141541	-0.1268501
61.3965709209442	3.580791
61.4121909141541	6.847458
61.4278209209442	9.53672
61.4434509277344	11.3851
61.4590709209442	12.19017
61.4747009277344	11.96281
61.4903209209442	10.97478
61.5059509277344	9.674004
61.5215709209442	8.52523
61.5372009277344	7.735184
61.5528309345245	7.225266
61.5684509277344	6.603699
61.5840809345245	5.393913
61.5997009277344	3.288956
61.6153309345245	0.3131256
61.6309609413147	-3.23333
61.6465809345245	-6.923439
61.6622109413147	-10.41954
61.6778309345245	-13.65335
61.6934609413147	-16.78491
61.7090809345245	-20.05376
61.7247109413147	-23.65021
61.7403409481049	-27.60739
61.7559609413147	-31.83252
61.7715909481049	-36.10565
61.7872109413147	-40.12547
61.8028409481049	-43.4207
61.8184609413147	-45.4726
61.8340909481049	-45.71964
61.849720954895	-43.81122
61.8653409481049	-39.71649
61.880970954895	-33.78209
61.8965909481049	-26.67148
61.912220954895	-19.10349
61.9278409481049	-11.74089
61.943470954895	-5.048935
61.9591009616852	0.6524658
61.974720954895	5.17421
61.9903509616852	8.390366
62.005970954895	10.26843
62.0216009616852	10.93187
62.037220954895	10.63283
62.0528509616852	9.769058
62.0684809684753	8.719833
62.0841009616852	7.816666
62.0997309684753	7.211777
62.1153509616852	6.908325
62.1309809684753	6.77713
62.1466009616852	6.597977
62.1622309684753	6.235901
62.1778609752655	5.580353
62.1934809684753	4.641235
62.2091109752655	3.445343
62.2247309684753	2.025757
62.2403609752655	0.3268433
62.2559809684753	-1.775146
62.2716109752655	-4.484711
62.2872409820557	-8.036163
62.3028609752655	-12.5379
62.3184909820557	-17.89429
62.3341109752655	-23.63986
62.3497409820557	-29.0405
62.3653609752655	-33.13785
62.3809909820557	-35.07971
62.3966209888458	-34.35928
62.4122409820557	-30.98969
62.4278709888458	-25.51596
62.4434909820557	-18.79849
62.4591209888458	-11.75818
62.4747409820557	-5.089233
62.4903709888458	0.774353
62.506000995636	5.657379
62.5216209888458	9.457977
62.537250995636	12.09625
62.5528709888458	13.51123
62.568500995636	13.7121
62.5841209888458	12.90845
62.599750995636	11.40408
62.6153810024261	9.573822
62.631000995636	7.685364
62.6466310024261	5.806488
62.662250995636	3.836304
62.6778810024261	1.58197
62.693500995636	-1.084747
62.7091310024261	-4.146881
62.7247610092163	-7.443176
62.7403810024261	-10.79083
62.7560110092163	-14.06989
62.7716310024261	-17.29623
62.7872610092163	-20.61096
62.8028810024261	-24.2244
62.8185110092163	-28.31961
62.8341410160065	-32.9483
62.8497610092163	-37.9483
62.8653910160065	-42.8479
62.8810110092163	-46.89746
62.8966410160065	-49.23071
62.9122610092163	-49.13422
62.9278910160065	-46.32169
62.9435210227966	-41.07999
62.9591410160065	-34.20651
62.9747710227966	-26.7153
62.9903910160065	-19.48682
63.0060210227966	-13.00604
63.0216410160065	-7.382751
63.0372710227966	-2.495819
63.0529010295868	1.718811
63.0685210227966	5.115326
63.0841510295868	7.436371
63.0997710227966	8.495697
63.1154010295868	8.390472
63.1310210227966	7.507904
63.1466510295868	6.367126
63.162281036377	5.332062
63.1779010295868	4.459381
63.193531036377	3.528473
63.2091510295868	2.217438
63.224781036377	0.3394165
63.2404010295868	-2.062561
63.256031036377	-4.752075
63.2716610431671	-7.476379
63.287281036377	-10.1409
63.3029110431671	-12.85059
63.318531036377	-15.81396
63.3341610431671	-19.23474
63.349781036377	-23.1774
63.3654110431671	-27.52792
63.3810410499573	-31.95691
63.3966610431671	-35.92419
63.4122910499573	-38.74081
63.4279110431671	-39.65958
63.4435410499573	-38.09747
63.4591610431671	-33.85275
63.4747910499573	-27.21933
63.4904210567474	-18.95712
63.5060410499573	-10.02209
63.5216710567474	-1.300781
63.5372910499573	6.632843
63.5529210567474	13.57297
63.5685410499573	19.54053
63.5841710567474	24.55533
63.5998010635376	28.53058
63.6154210567474	31.23322
63.6310510635376	32.44485
63.6466710567474	32.09183
63.6623010635376	30.35519
63.6779210567474	27.58939
63.6935510635376	24.22659
63.7091810703278	20.61008
63.7248010635376	16.93939
63.7404310703278	13.28299
63.7560510635376	9.66214
63.7716810703278	6.083618
63.7873010635376	2.533112
63.8029310703278	-1.08606
63.8185610771179	-4.982208
63.8341810703278	-9.456543
63.8498110771179	-14.76099
63.8654310703278	-20.95621
63.8810610771179	-27.81641
63.8966910839081	-34.83734
63.9123110771179	-41.35965
63.9279410839081	-46.72861
63.9435610771179	-50.38348
63.9591910839081	-51.94931
63.9748110771179	-51.26447
63.9904410839081	-48.40817
64.0060710906982	-43.68652
64.0216910839081	-37.62735
64.0373210906982	-30.87482
64.0529410839081	-24.05936
64.0685710906982	-17.68863
64.0841910839081	-12.11362
64.0998210906982	-7.547791
64.1154510974884	-4.17334
64.1310710906982	-2.181305
64.1467010974884	-1.695404
64.1623210906982	-2.69046
64.1779510974884	-4.880249
64.1935710906982	-7.716095
64.2092010974884	-10.55023
64.2248311042786	-12.83582
64.2404510974884	-14.31195
64.2560811042786	-15.11255
64.2717010974884	-15.61429
64.2873311042786	-16.22647
64.3029510974884	-17.15509
64.3185811042786	-18.33307
64.3342111110687	-19.48575
64.3498311042786	-20.41351
64.3654611110687	-21.19498
64.3810811042786	-22.24249
64.3967111110687	-24.18182
64.4123311042786	-27.53702
64.4279611110687	-32.44934
64.4435908794403	-38.49661
64.4592111110687	-44.77463
64.4748408794403	-50.15411
64.4904611110687	-53.6235
64.5060908794403	-54.55606
64.5217111110687	-52.82191
64.5373408794403	-48.72795
64.5529708862305	-42.85286
64.5685908794403	-35.84837
64.5842208862305	-28.28809
64.5998408794403	-20.5526
64.6154708862305	-12.86217
64.6310908794403	-5.394104
64.6467208862305	1.610092
64.6623508930206	7.742813
64.6779708862305	12.51654
64.6936008930206	15.54828
64.7092208862305	16.76257
64.7248508930206	16.57062
64.7404708862305	15.73329
64.7561008930206	15.09334
64.7717308998108	15.1653
64.7873508930206	15.88229
64.8029808998108	16.61349
64.8186008930206	16.48453
64.8342308998108	14.86459
64.8498508930206	11.65316
64.8654808998108	7.315521
64.881110906601	2.55468
64.8967308998108	-2.087318
64.912360906601	-6.555733
64.9279808998108	-11.21222
64.943610906601	-16.61436
64.9592308998108	-23.13522
64.974860906601	-30.78613
64.9904909133911	-39.19797
65.006110906601	-47.74807
65.0217409133911	-55.69116
65.037360906601	-62.18647
65.0529909133911	-66.36761
65.068610906601	-67.44221
65.0842409133911	-64.89986
65.0998709201813	-58.70062
65.1154909133911	-49.33036
65.1311209201813	-37.63071
65.1467409133911	-24.46212
65.1623709201813	-10.46093
65.1779909133911	4.097792
65.1936209201813	19.11252
65.2092509269714	34.38358
65.2248709201813	49.37782
65.2405009269714	63.22119
65.2561209201813	74.92084
65.2717509269714	83.70605
65.2873709201813	89.32488
65.3030009269714	92.14171
65.3186309337616	92.96009
65.3342509269714	92.72792
65.3498809337616	92.16969
65.3655009269714	91.60693
65.3811309337616	90.93435
65.3967509269714	89.81824
65.4123809337616	87.9111
65.4280109405518	85.05843
65.4436309337616	81.24278
65.4592609405518	76.53616
65.4748809337616	70.92978
65.4905109405518	64.32394
65.5061309337616	56.59229
65.5217609405518	47.68448
65.5373909473419	37.72833
65.5530109405518	27.00311
65.5686409473419	15.88928
65.5842609405518	4.8564
65.5998909473419	-5.543579
65.6155109405518	-14.69655
65.6311409473419	-21.98759
65.6467709541321	-26.94931
65.6623909473419	-29.43623
65.6780209541321	-29.65225
65.6936409473419	-28.06487
65.7092709541321	-25.19086
65.7248909473419	-21.41455
65.7405209541321	-16.90335
65.7561509609222	-11.73296
65.7717709541321	-6.055527
65.7874009609222	-0.2340851
65.8030209541321	5.163376
65.8186509609222	9.524567
65.8342709541321	12.4209
65.8499009609222	13.7525
65.8655309677124	13.76779
65.8811509609222	12.94753
65.8967809677124	11.82559
65.9124009609222	10.81145
65.9280309677124	10.09373
65.9436509609222	9.634552
65.9592809677124	9.307007
65.9749109745026	8.968246
65.9905309677124	8.59642
66.0061609745026	8.28038
66.0217809677124	8.134781
66.0374109745026	8.230469
66.0530309677124	8.497192
66.0686609745026	8.722183
66.0842909812927	8.630066
66.0999109745026	7.978302
66.1155409812927	6.619141
66.1311609745026	4.512665
66.1467909812927	1.685486
66.1624109745026	-1.741058
66.1780409812927	-5.474731
66.1936709880829	-8.963165
66.2092909812927	-11.38913
66.2249209880829	-11.8197
66.2405409812927	-9.469635
66.2561709880829	-3.992401
66.2717909812927	4.378845
66.2874209880829	14.93405
66.303050994873	26.69943
66.3186709880829	38.75049
66.334300994873	50.39795
66.3499209880829	61.19644
66.365550994873	70.83429
66.3811810016632	79.00281
66.396800994873	85.32751
66.4124310016632	89.46091
66.428050994873	91.24759
66.4436810016632	90.8035
66.459300994873	88.54678
66.4749310016632	85.09363
66.4905610084534	81.05048
66.5061810016632	76.89777
66.5218110084534	72.83304
66.5374310016632	68.81096
66.5530610084534	64.65199
66.5686810016632	60.15324
66.5843110084534	55.20807
66.5999410152435	49.82751
66.6155610084534	44.1021
66.6311910152435	38.13483
66.6468110084534	31.98991
66.6624410152435	25.65778
66.6780610084534	19.1255
66.6936910152435	12.41698
66.7093210220337	5.614929
66.7249410152435	-1.138702
66.7405710220337	-7.733856
66.7561910152435	-14.1545
66.7718210220337	-20.50273
66.7874410152435	-26.88626
66.8030710220337	-33.26727
66.8187010288239	-39.25616
66.8343210220337	-44.07625
66.8499510288239	-46.70436
66.8655710220337	-46.21158
66.8812010288239	-42.13353
66.8968210220337	-34.73323
66.9124510288239	-24.93848
66.928081035614	-14.06744
66.9437010288239	-3.376373
66.959331035614	6.25676
66.9749510288239	14.4649
66.990581035614	21.19626
67.0062010288239	26.49718
67.021831035614	30.29642
67.0374610424042	32.45706
67.053081035614	32.90979
67.0687110424042	31.80568
67.084331035614	29.53506
67.0999610424042	26.59098
67.115581035614	23.38788
67.1312110424042	20.11555
67.1468410491943	16.7336
67.1624610424042	13.0766
67.1780910491943	9.002983
67.1937110424042	4.507088
67.2093410491943	-0.2920456
67.2249610424042	-5.162018
67.2405910491943	-9.848793
67.2562210559845	-14.16334
67.2718410491943	-18.03383
67.2874710559845	-21.52612
67.3030910491943	-24.85884
67.3187210559845	-28.33817
67.3343410491943	-32.27786
67.3499710559845	-36.91708
67.3656010627747	-42.34467
67.3812210559845	-48.48615
67.3968510627747	-55.06693
67.4124710559845	-61.59675
67.4281010627747	-67.37732
67.4437210559845	-71.55577
67.4593510627747	-73.33112
67.4749810695648	-72.15974
67.4906010627747	-67.96587
67.5062310695648	-61.15731
67.5218510627747	-52.54392
67.5374810695648	-43.05035
67.5531010627747	-33.50187
67.5687310695648	-24.47402
67.584361076355	-16.31297
67.5999810695648	-9.20166
67.615611076355	-3.283504
67.6312310695648	1.336549
67.646861076355	4.603916
67.6624810695648	6.579859
67.678111076355	7.426971
67.6937410831451	7.407759
67.709361076355	6.794853
67.7249910831451	5.881821
67.740611076355	4.901632
67.7562410831451	4.031849
67.771861076355	3.325981
67.7874910831451	2.696594
67.8031210899353	1.919922
67.8187410831451	0.7684135
67.8343710899353	-0.8913155
67.8499910831451	-2.9809
67.8656210899353	-5.240868
67.8812410831451	-7.320862
67.8968710899353	-8.975037
67.9125010967255	-10.17127
67.9281210899353	-11.07282
67.9437510967255	-11.94954
67.9593710899353	-13.04696
67.9750010967255	-14.52095
67.9906210899353	-16.46826
68.0062510967255	-18.934
68.0218811035156	-21.88425
68.0375010967255	-25.05664
68.0531311035156	-27.85207
68.0687510967255	-29.35733
68.0843811035156	-28.59061
68.1000010967255	-24.89009
68.1156311035156	-18.22607
68.1312611103058	-9.31789
68.1468811035156	0.6022415
68.1625111103058	10.21244
68.1781311035156	18.53738
68.1937611103058	25.16006
68.2093811035156	30.16558
68.2250111103058	33.82918
68.2406408786774	36.32957
68.2562611103058	37.60476
68.2718908786774	37.40148
68.2875111103058	35.46555
68.3031408786774	31.79181
68.3187611103058	26.69591
68.3343908786774	20.72464
68.3500208854675	14.46818
68.3656408786774	8.316273
68.3812708854675	2.343925
68.3968908786774	-3.612152
68.4125208854675	-9.811665
68.4281408786774	-16.36049
68.4437708854675	-23.16455
68.4594008922577	-29.97285
68.4750208854675	-36.55507
68.4906508922577	-42.82444
68.5062708854675	-48.87294
68.5219008922577	-54.88095
68.5375208854675	-60.96945
68.5531508922577	-67.08138
68.5687808990479	-73.01249
68.5844008922577	-78.47382
68.6000308990479	-83.16945
68.6156508922577	-86.80835
68.6312808990479	-89.09035
68.6469008922577	-89.61647
68.6625308990479	-87.939
68.678160905838	-83.67401
68.6937808990479	-76.68764
68.709410905838	-67.18625
68.7250308990479	-55.7956
68.740660905838	-43.34346
68.7562909126282	-30.68708
68.771910905838	-18.49378
68.7875409126282	-7.166224
68.803160905838	3.087639
68.8187909126282	12.14429
68.834410905838	19.82051
68.8500409126282	25.91181
68.8656709194183	30.24913
68.8812909126282	32.86543
68.8969209194183	34.06418
68.9125409126282	34.34616
68.9281709194183	34.25498
68.9437909126282	34.172
68.9594209194183	34.17935
68.9750509262085	34.06402
68.9906709194183	33.45309
69.0063009262085	32.00273
69.0219209194183	29.58399
69.0375509262085	26.3282
69.0531709194183	22.58585
69.0688009262085	18.76604
69.0844309329987	15.13817
69.1000509262085	11.69339
69.1156809329987	8.16745
69.1313009262085	4.184792
69.1469309329987	-0.5606842
69.1625509262085	-6.128628
69.1781809329987	-12.27813
69.1938109397888	-18.51757
69.2094309329987	-24.18459
69.2250609397888	-28.57457
69.2406809329987	-31.02764
69.2563109397888	-31.02155
69.2719309329987	-28.27379
69.2875609397888	-22.84266
69.303190946579	-15.17119
69.3188109397888	-6.034729
69.334440946579	3.675018
69.3500609397888	13.1725
69.365690946579	21.93987
69.3813109397888	29.72713
69.396940946579	36.39037
69.4125709533691	41.72386
69.428190946579	45.40699
69.4438209533691	47.12975
69.459440946579	46.78056
69.4750709533691	44.64231
69.490690946579	41.35501
69.5063209533691	37.74233
69.5219509601593	34.53191
69.5375709533691	32.05753
69.5532009601593	30.21838
69.5688209533691	28.59734
69.5844509601593	26.72003
69.6000709533691	24.2915
69.6157009601593	21.31516
69.6313309669495	18.02629
69.6469509601593	14.70952
69.6625809669495	11.54575
69.6782009601593	8.549316
69.6938309669495	5.580338
69.7094509601593	2.45195
69.7250809669495	-0.9988556
69.7407109737396	-4.893158
69.7563309669495	-9.250458
69.7719609737396	-13.9493
69.7875809669495	-18.65308
69.8032109737396	-22.69667
69.8188309669495	-25.17148
69.8344609737396	-25.12991
69.8500909805298	-21.87781
69.8657109737396	-15.28909
69.8813409805298	-5.89296
69.8969609737396	5.254578
69.9125909805298	16.95625
69.9282109737396	28.19472
69.9438409805298	38.3987
69.9594709873199	47.37286
69.9750909805298	55.11844
69.9907209873199	61.60844
70.0063409805298	66.64619
70.0219709873199	69.96642
70.0375909805298	71.39876
70.0532209873199	71.06461
70.0688509941101	69.423
70.0844709873199	67.16426
70.1001009941101	64.92999
70.1157209873199	63.05519
70.1313509941101	61.48999
70.1469709873199	59.87128
70.1626009941101	57.74966
70.1782310009003	54.85244
70.1938509941101	51.21049
70.2094810009003	47.07108
70.2251009941101	42.7383
70.2407310009003	38.32934
70.2563509941101	33.74992
70.2719810009003	28.74689
70.2876110076904	23.06332
70.3032310009003	16.58845
70.3188610076904	9.398819
70.3344810009003	1.691139
70.3501110076904	-6.274452
70.3657310009003	-14.16844
70.3813610076904	-21.52062
70.3969910144806	-27.67309
70.4126110076904	-31.81986
70.4282410144806	-33.30728
70.4438610076904	-31.81779
70.4594910144806	-27.61739
70.4751110076904	-21.45919
70.4907410144806	-14.32554
70.5063710212708	-7.066967
70.5219910144806	-0.2059135
70.5376210212708	6.077991
70.5532410144806	11.78743
70.5688710212708	16.8137
70.5844910144806	20.86114
70.6001210212708	23.51249
70.6157510280609	24.42511
70.6313710212708	23.61536
70.6470010280609	21.50863
70.6626210212708	18.82368
70.6782510280609	16.27367
70.6938710212708	14.29911
70.7095010280609	12.86956
70.7251310348511	11.60407
70.7407510280609	9.963253
70.7563810348511	7.562819
70.7720010280609	4.343325
70.7876310348511	0.6219158
70.8032510280609	-3.117992
70.8188810348511	-6.476685
70.8345110416412	-9.34985
70.8501310348511	-12.00106
70.8657610416412	-14.91326
70.8813810348511	-18.58689
70.8970110416412	-23.30835
70.9126410484314	-29.05654
70.9282610416412	-35.52936
70.9438910484314	-42.20267
70.9595110416412	-48.42973
70.9751410484314	-53.49309
70.9907610416412	-56.70538
71.0063910484314	-57.48126
71.0220210552216	-55.52102
71.0376410484314	-50.89328
71.0532710552216	-44.06
71.0688910484314	-35.76826
71.0845210552216	-26.88412
71.1001410484314	-18.19033
71.1157710552216	-10.31214
71.1314010620117	-3.688622
71.1470210552216	1.360107
71.1626510620117	4.634514
71.1782710552216	6.080322
71.1939010620117	5.884766
71.2095210552216	4.486649
71.2251510620117	2.525162
71.2407810688019	0.6353912
71.2564010620117	-0.7294006
71.2720310688019	-1.486954
71.2876510620117	-1.896179
71.3032810688019	-2.416885
71.3189010620117	-3.480637
71.3345310688019	-5.239044
71.350161075592	-7.519272
71.3657810688019	-9.908432
71.381411075592	-11.99431
71.3970310688019	-13.61079
71.412661075592	-14.94667
71.4282810688019	-16.44547
71.443911075592	-18.65479
71.4595410823822	-21.96265
71.475161075592	-26.44475
71.4907910823822	-31.77296
71.506411075592	-37.24156
71.5220410823822	-41.85042
71.537661075592	-44.51199
71.5532910823822	-44.28522
71.5689210891724	-40.66408
71.5845410823822	-33.78549
71.6001710891724	-24.41582
71.6157910823822	-13.76523
71.6314210891724	-3.116806
71.6470410823822	6.472778
71.6626710891724	14.34332
71.6783010959625	20.22797
71.6939210891724	24.09044
71.7095510959625	26.01904
71.7251710891724	26.13464
71.7408010959625	24.6806
71.7564210891724	22.07278
71.7720510959625	18.90311
71.7876811027527	15.77525
71.8033010959625	13.15103
71.8189311027527	11.15526
71.8345510959625	9.569122
71.8501811027527	7.976563
71.8658010959625	5.992035
71.8814311027527	3.400131
71.8970611095428	0.2489624
71.9126811027527	-3.313019
71.9283111095428	-7.125687
71.9439311027527	-11.16466
71.9595611095428	-15.51639
71.9751811027527	-20.35228
71.9908111095428	-25.77158
72.0064408779144	-31.76387
72.0220611095428	-38.10608
72.0376908779144	-44.37286
72.0533111095428	-49.91956
72.0689408779144	-53.9393
72.0845611095428	-55.63074
72.1001908779144	-54.38414
72.1158208847046	-50.02859
72.1314408779144	-42.91522
72.1470708847046	-33.84898
72.1626908779144	-23.86177
72.1783208847046	-13.91679
72.1939408779144	-4.752441
72.2095708847046	3.22551
72.2252008914948	9.790436
72.2408208847046	14.82817
72.2564508914948	18.24652
72.2720708847046	20.05418
72.2877008914948	20.36818
72.3033208847046	19.50768
72.3189508914948	17.89276
72.3345808982849	15.9236
72.3502008914948	13.83742
72.3658308982849	11.66644
72.3814508914948	9.279282
72.3970808982849	6.528702
72.4127008914948	3.374176
72.4283308982849	-0.1060181
72.4439609050751	-3.769089
72.4595808982849	-7.536194
72.4752109050751	-11.50447
72.4908308982849	-15.92436
72.5064609050751	-21.14194
72.5220808982849	-27.4682
72.5377109050751	-35.04193
72.5533409118652	-43.70807
72.5689609050751	-52.97612
72.5845909118652	-62.00055
72.6002109050751	-69.71693
72.6158409118652	-75.07961
72.6314609050751	-77.34697
72.6470909118652	-76.33594
72.6627209186554	-72.47661
72.6783409118652	-66.65797
72.6939709186554	-59.87297
72.7095909118652	-52.93629
72.7252209186554	-46.27621
72.7408409118652	-39.97141
72.7564709186554	-33.94168
72.7721009254456	-28.17111
72.7877209186554	-22.82167
72.8033509254456	-18.19928
72.8189709186554	-14.59416
72.8346009254456	-12.10193
72.8502209186554	-10.5599
72.8658509254456	-9.572479
72.8814809322357	-8.710083
72.8971009254456	-7.697739
72.9127309322357	-6.524719
