onset	BVP
2.22114706039429	1.723022
2.23677706718445	1.820129
2.25239706039429	1.980164
2.26802706718445	2.062775
2.28364706039429	1.961548
2.29927706718445	1.665253
2.31490707397461	1.247559
2.33052706718445	0.8370972
2.34615707397461	0.5578308
2.36177706718445	0.4720154
2.37740707397461	0.5579224
2.39302706718445	0.7410889
2.40865707397461	0.9160156
2.42428708076477	1.002441
2.43990707397461	0.9633789
2.45553708076477	0.7835388
2.47115707397461	0.46875
2.48678708076477	0.03118896
2.50240707397461	-0.4985962
2.51803708076477	-1.072998
2.53366708755493	-1.602112
2.54928708076477	-1.997742
2.56491708755493	-2.198181
2.58053708076477	-2.214355
2.59616708755493	-2.12088
2.61178708076477	-2.018585
2.62741708755493	-1.984619
2.64304709434509	-2.047302
2.65866708755493	-2.197388
2.67429709434509	-2.400146
2.68991708755493	-2.648285
2.70554709434509	-2.950806
2.72117710113525	-3.298065
2.73679709434509	-3.658783
2.75242710113525	-3.951141
2.76804709434509	-4.04834
2.78367710113525	-3.833649
2.79929709434509	-3.228333
2.81492710113525	-2.241608
2.83055710792542	-0.9836426
2.84617710113525	0.3712158
2.86180710792542	1.635498
2.87742710113525	2.661621
2.89305710792542	3.384583
2.90867710113525	3.810242
2.92430710792542	3.989319
2.93993711471558	3.989349
2.95555710792542	3.852753
2.97118711471558	3.602051
2.98680710792542	3.253143
3.00243711471558	2.842499
3.01805710792542	2.411682
3.03368711471558	2.021057
3.04931712150574	1.723175
3.06493711471558	1.547791
3.08056712150574	1.502869
3.09618711471558	1.569
3.11181712150574	1.710846
3.12743711471558	1.873413
3.14306712150574	2.014618
3.1586971282959	2.084808
3.17431712150574	2.080017
3.1899471282959	1.988312
3.20556712150574	1.795624
3.2211971282959	1.49054
3.23681712150574	1.078125
3.2524471282959	0.5924683
3.26807689666748	0.1082153
3.2836971282959	-0.2829285
3.29932689666748	-0.5114746
3.3149471282959	-0.5546265
3.33057689666748	-0.4584351
3.3461971282959	-0.3153687
3.36182689666748	-0.2152405
3.37745690345764	-0.2129822
3.40870690345764	-0.4927673
3.42432689666748	-0.7346649
3.43995690345764	-1.029648
3.45557689666748	-1.37793
3.47120690345764	-1.757675
3.4868369102478	-2.118805
3.50245690345764	-2.390488
3.5180869102478	-2.531555
3.53370690345764	-2.540115
3.5493369102478	-2.472321
3.56495690345764	-2.400864
3.5805869102478	-2.383026
3.59621691703796	-2.444397
3.6118369102478	-2.567291
3.62746691703796	-2.729523
3.6430869102478	-2.879028
3.65871691703796	-2.983047
3.6743369102478	-2.978165
3.68996691703796	-2.80867
3.70559692382812	-2.411606
3.72121691703796	-1.753754
3.73684692382812	-0.8603821
3.75246691703796	0.1850433
3.76809692382812	1.213287
3.78371691703796	2.057877
3.79934692382812	2.574905
3.81497693061829	2.732178
3.83059692382812	2.593262
3.84622693061829	2.287247
3.86184692382812	1.937897
3.87747693061829	1.614197
3.89309692382812	1.314255
3.90872693061829	1.014603
3.92435693740845	0.7255707
3.93997693061829	0.4981842
3.95560693740845	0.3949585
3.97122693061829	0.4328918
3.98685693740845	0.5419159
4.00247693061829	0.6097717
4.01810693740845	0.5384369
4.03373694419861	0.346283
4.04935693740845	0.1314392
4.06498694419861	0.03263855
4.08060693740845	0.125946
4.09623694419861	0.3752136
4.11185693740845	0.6720123
4.12748694419861	0.8886566
4.14311695098877	0.9561005
4.15873694419861	0.8652802
4.17436695098877	0.661377
4.18998694419861	0.3767395
4.20561695098877	0.04621887
4.22123694419861	-0.2925262
4.23686695098877	-0.5992279
4.25249695777893	-0.8262634
4.26811695098877	-0.960083
4.28374695777893	-1.028107
4.29936695098877	-1.108536
4.31499695777893	-1.268814
4.33061695098877	-1.535919
4.34624695777893	-1.871521
4.36187696456909	-2.16951
4.37749695777893	-2.329117
4.39312696456909	-2.298203
4.40874695777893	-2.118088
4.42437696456909	-1.89505
4.43999695777893	-1.758942
4.45562696456909	-1.803085
4.47125697135925	-2.031601
4.48687696456909	-2.355179
4.50250697135925	-2.605804
4.51812696456909	-2.624954
4.53375697135925	-2.284958
4.54937696456909	-1.574463
4.56500697135925	-0.5856628
4.58063697814941	0.502533
4.59625697135925	1.482971
4.61188697814941	2.174652
4.62750697135925	2.459839
4.64313697814941	2.330078
4.65875697135925	1.874695
4.67438697814941	1.303528
4.69001698493958	0.8376312
4.70563697814941	0.6509399
4.72126698493958	0.7902374
4.73688697814941	1.14917
4.75251698493958	1.525742
4.76813697814941	1.714462
4.78376698493958	1.605942
4.79939699172974	1.235977
4.81501698493958	0.7533722
4.83064699172974	0.3279877
4.84626698493958	0.05769348
4.86189699172974	-0.03840637
4.87751698493958	-0.01249695
4.89314699172974	0.07872009
4.9087769985199	0.1831818
4.92439699172974	0.2714844
4.9400269985199	0.3090057
4.95564699172974	0.2588959
4.9712769985199	0.08381653
4.98689699172974	-0.2236633
5.0025269985199	-0.6381378
5.01815700531006	-1.120178
5.0337769985199	-1.629166
5.04940700531006	-2.126053
5.0650269985199	-2.549683
5.08065700531006	-2.835083
5.0962769985199	-2.909286
5.11190700531006	-2.752625
5.12753701210022	-2.425858
5.14315700531006	-2.054871
5.15878701210022	-1.777374
5.17440700531006	-1.66188
5.19003701210022	-1.674133
5.20566701889038	-1.712341
5.22128701210022	-1.678772
5.23691701889038	-1.567993
5.25253701210022	-1.478745
5.26816701889038	-1.536835
5.28378701210022	-1.797333
5.29941701889038	-2.178436
5.31504702568054	-2.466354
5.33066701889038	-2.417862
5.34629702568054	-1.90271
5.36191701889038	-0.9645233
5.37754702568054	0.1856537
5.39316701889038	1.262131
5.40879702568054	2.028534
5.4244270324707	2.391159
5.44004702568054	2.403366
5.4556770324707	2.197937
5.47129702568054	1.929184
5.4869270324707	1.685318
5.5181770324707	1.26236
5.53380703926086	1.000183
5.5494270324707	0.6652374
5.56505703926086	0.2950287
5.5806770324707	-0.04846191
5.59630703926086	-0.3106689
5.6119270324707	-0.4526825
5.62755703926086	-0.4757996
5.64318704605103	-0.4128418
5.65880703926086	-0.3005829
5.67443704605103	-0.1759796
5.69005703926086	-0.06347656
5.70568704605103	0.03511047
5.72130703926086	0.1486511
5.73693704605103	0.3334351
5.75256705284119	0.6505432
5.76818704605103	1.131485
5.78381705284119	1.742874
5.79943704605103	2.383987
5.81506705284119	2.918289
5.83068704605103	3.222198
5.84631705284119	3.245407
5.86194705963135	3.024628
5.87756705284119	2.672684
5.89319705963135	2.313187
5.90881705284119	2.055908
5.92444705963135	1.95639
5.94006705284119	2.026123
5.95569705963135	2.231995
5.97132706642151	2.511414
5.98694705963135	2.807648
6.00257706642151	3.080399
6.01819705963135	3.341492
6.03382706642151	3.662537
6.04944705963135	4.13826
6.06507706642151	4.843079
6.08070707321167	5.7845
6.09632706642151	6.879013
6.11195707321167	7.983688
6.12757706642151	8.965561
6.14320707321167	9.741302
6.15882706642151	10.30899
6.17445707321167	10.72482
6.19008708000183	11.05475
6.20570707321167	11.33226
6.22133708000183	11.54696
6.23695707321167	11.65617
6.25258708000183	11.63179
6.26820707321167	11.45785
6.28383708000183	11.16523
6.29946708679199	10.80846
6.31508708000183	10.44683
6.33071708679199	10.13087
6.34633708000183	9.868187
6.36196708679199	9.616821
6.37758708000183	9.329605
6.39321708679199	8.985825
6.40884709358215	8.613937
6.42446708679199	8.307785
6.44009709358215	8.183426
6.45571708679199	8.306412
6.47134709358215	8.660233
6.48696708679199	9.123703
6.50259709358215	9.518257
6.51822710037231	9.670944
6.53384709358215	9.474434
6.54947710037231	8.917397
6.56509709358215	8.069351
6.58072710037231	7.013489
6.59634709358215	5.787811
6.61197710037231	4.38353
6.62760710716248	2.76741
6.64322710037231	0.9248352
6.65885710716248	-1.087959
6.67447710037231	-3.115005
6.70572710037231	-6.455971
6.72135710716248	-7.513939
6.73698711395264	-8.198681
6.75260710716248	-8.668175
6.76823711395264	-9.105667
6.78385710716248	-9.610661
6.79948711395264	-10.17836
6.81510710716248	-10.72235
6.83073711395264	-11.14932
6.8463671207428	-11.38314
6.86198711395264	-11.43419
6.8776171207428	-11.34596
6.89323711395264	-11.16824
6.9088671207428	-10.95164
6.92448711395264	-10.74219
6.9401171207428	-10.59897
6.95574712753296	-10.59467
6.9713671207428	-10.76619
6.98699712753296	-11.0705
7.0026171207428	-11.39687
7.01824712753296	-11.59902
7.0338671207428	-11.59371
7.04949712753296	-11.39923
7.06512689590454	-11.12499
7.08074712753296	-10.91329
7.09637689590454	-10.84606
7.11199712753296	-10.92264
7.12762689590454	-11.06189
7.14324712753296	-11.17512
7.15887689590454	-11.21301
7.1745069026947	-11.1801
7.19012689590454	-11.11378
7.2057569026947	-11.02119
7.22137689590454	-10.84951
7.2370069026947	-10.49976
7.25262689590454	-9.881893
7.2682569026947	-8.995101
7.28388690948486	-7.962951
7.2995069026947	-6.995706
7.31513690948486	-6.328218
7.3307569026947	-6.114129
7.34638690948486	-6.36544
7.3620069026947	-6.960793
7.37763690948486	-7.710947
7.39326691627502	-8.439682
7.40888690948486	-9.0337
7.42451691627502	-9.436664
7.44013690948486	-9.612202
7.45576691627502	-9.523705
7.47138690948486	-9.153395
7.48701691627502	-8.535399
7.50264692306519	-7.812948
7.51826691627502	-7.182013
7.53389692306519	-6.817382
7.54951691627502	-6.775507
7.56514692306519	-6.95958
7.58077692985535	-7.175251
7.59639692306519	-7.23255
7.61202692985535	-7.04479
7.62764692306519	-6.651555
7.64327692985535	-6.165551
7.65889692306519	-5.680143
7.67452692985535	-5.216463
7.69015693664551	-4.729242
7.70577692985535	-4.166692
7.72140693664551	-3.5082
7.73702692985535	-2.796389
7.76827692985535	-1.390195
7.78390693664551	-0.7355642
7.79953694343567	-0.1171141
7.81515693664551	0.442378
7.83078694343567	0.8921585
7.84640693664551	1.184332
7.86203694343567	1.321045
7.87765693664551	1.362896
7.89328694343567	1.372133
7.90891695022583	1.401945
7.92453694343567	1.47874
7.94016695022583	1.597042
7.95578694343567	1.75517
7.97141695022583	1.95624
7.98703694343567	2.204304
8.00266695022583	2.494347
8.01829695701599	2.761814
8.03391695022583	2.888976
8.04954695701599	2.799747
8.06516695022583	2.551251
8.08079695701599	2.32535
8.09641695022583	2.352764
8.11204695701599	2.77276
8.12767696380615	3.532366
8.14329695701599	4.423061
8.15892696380615	5.169321
8.17454695701599	5.52001
8.19017696380615	5.428949
8.20579695701599	5.106068
8.22142696380615	4.919363
8.23705697059631	5.200645
8.25267696380615	6.106743
8.26830697059631	7.581259
8.28392696380615	9.465509
8.29955697059631	11.54709
8.31517696380615	13.45342
8.33080697059631	14.90616
8.34643697738647	15.86955
8.36205697059631	16.56319
8.37768697738647	17.30124
8.39330697059631	18.31914
8.40893697738647	19.71566
8.42455697059631	21.53704
8.44018697738647	23.65094
8.45581698417664	25.44545
8.47143697738647	26.374
8.48706698417664	26.27998
8.50268697738647	25.50252
8.51831698417664	24.59618
8.53393697738647	23.95078
8.54956698417664	23.66003
8.5651969909668	23.70634
8.58081698417664	23.80537
8.5964469909668	22.9988
8.61206698417664	20.53682
8.6276969909668	16.28969
8.64331698417664	10.82795
8.6589469909668	4.9282
8.67457699775696	-0.9686241
8.6901969909668	-6.833183
8.70582699775696	-12.69815
8.7214469909668	-18.9387
8.73707699775696	-26.79802
8.7526969909668	-37.304
8.76832699775696	-50.70567
8.78395700454712	-66.24803
8.79957699775696	-82.65406
8.81520700454712	-98.79815
8.83082699775696	-113.9052
8.84645700454712	-127.2823
8.86207699775696	-132.7449
8.87770700454712	-125.7653
8.89333701133728	-106.1662
8.90895700454712	-78.94319
8.92458701133728	-50.5971
8.94020700454712	-25.43721
8.95583701133728	-4.954327
8.97145700454712	9.703182
8.98708701133728	20.87354
9.00271701812744	30.0848
9.01833701133728	37.19339
9.03396701812744	41.61893
9.04958701133728	43.15331
9.06521701812744	42.33324
9.08083701133728	40.24292
9.09646701812744	37.65862
9.1120970249176	35.11652
9.12771701812744	33.24744
9.1433470249176	32.20806
9.15896701812744	31.32782
9.1745970249176	29.85914
9.19021701812744	27.43933
9.2058470249176	24.35493
9.22147703170776	21.25113
9.2370970249176	18.66343
9.25272703170776	16.90937
9.2683470249176	16.23781
9.28397703170776	16.40762
9.2995970249176	16.63756
9.31522703170776	16.20208
9.33085703849792	14.79011
9.34647703170776	12.65313
9.36210703849792	10.32779
9.37772703170776	8.267815
9.39335703849792	6.727375
9.40897703170776	5.846237
9.42460703849792	5.464947
9.44023704528809	5.159695
9.45585703849792	4.569519
9.47148704528809	3.560223
9.48710703849792	2.289169
9.50273704528809	1.034813
9.51835703849792	0.000705719
9.53398704528809	-0.7615738
9.54961705207825	-1.311352
9.56523704528809	-1.870155
9.58086705207825	-2.716251
9.59648704528809	-4.000969
9.61211705207825	-5.673054
9.62773704528809	-7.505672
9.64336705207825	-9.190266
9.65899705886841	-10.49052
9.67461705207825	-11.27793
9.69024705886841	-11.5351
9.70586705207825	-11.365
9.72149705886841	-10.93917
9.73711705207825	-10.44803
9.75274705886841	-10.06974
9.76837706565857	-9.93121
9.78399705886841	-10.0637
9.79962706565857	-10.3922
9.81524705886841	-10.74085
9.83087706565857	-10.89423
9.84650707244873	-10.66766
9.86212706565857	-9.97438
9.87775707244873	-8.838577
9.89337706565857	-7.376747
9.90900707244873	-5.761406
9.92462706565857	-4.150867
9.94025707244873	-2.643513
9.95588707923889	-1.27562
9.97150707244873	-0.04177094
9.98713707923889	1.073738
10.0027570724487	2.03863
10.0183870792389	2.784414
10.0340070724487	3.244297
10.0496370792389	3.375065
10.0652670860291	3.20727
10.0808870792389	2.829666
10.0965170860291	2.35844
10.1121370792389	1.900148
10.1277670860291	1.52276
10.1433870792389	1.261877
10.1590170860291	1.132515
10.1746470928192	1.15937
10.1902670860291	1.348837
10.2058970928192	1.708754
10.2215170860291	2.239494
10.2371470928192	2.910427
10.2527670860291	3.66519
10.2683970928192	4.41506
10.2840270996094	5.026827
10.2996470928192	5.351168
10.3152770996094	5.292152
10.3308970928192	4.824545
10.3465270996094	4.032776
10.3621470928192	3.062248
10.3777770996094	2.038652
10.3934071063995	0.9906502
10.4090270996094	-0.1755219
10.4246571063995	-1.623796
10.4402770996094	-3.480534
10.4559071063995	-5.738903
10.4715270996094	-8.237785
10.4871571063995	-10.69516
10.5027871131897	-12.82042
10.5184071063995	-14.39969
10.5340371131897	-15.33319
10.5496571063995	-15.61982
10.5652871131897	-15.34002
10.5809071063995	-14.63158
10.5965371131897	-13.67463
10.6121671199799	-12.65882
10.6277871131897	-11.74032
10.6434171199799	-10.98942
10.6590371131897	-10.39545
10.6746671199799	-9.856516
10.6902871131897	-9.246674
10.7059171199799	-8.480846
10.72154712677	-7.555612
10.7371671199799	-6.569339
10.75279712677	-5.673099
10.7684171199799	-5.003684
10.78404712677	-4.644826
10.7996671199799	-4.613756
10.81529712677	-4.869321
10.8309268951416	-5.334179
10.84654712677	-5.935958
10.8621768951416	-6.584902
10.87779712677	-7.21454
10.8934268951416	-7.770664
10.90904712677	-8.235442
10.9246768951416	-8.608551
10.9403069019318	-8.888828
10.9559268951416	-9.07527
10.9715569019318	-9.145674
10.9871768951416	-9.08918
11.0028069019318	-8.919628
11.0184268951416	-8.692371
11.0340569019318	-8.493164
11.0496869087219	-8.397812
11.0653069019318	-8.419441
11.0809369087219	-8.479248
11.0965569019318	-8.459229
11.1121869087219	-8.233776
11.1278069019318	-7.766502
11.1434369087219	-7.092266
11.1590669155121	-6.310791
11.1746869087219	-5.478603
11.1903169155121	-4.566792
11.2059369087219	-3.457397
11.2215669155121	-2.004292
11.2371869087219	-0.1307106
11.2528169155121	2.120399
11.2684469223022	4.587597
11.2840669155121	7.06546
11.2996969223022	9.377769
11.3153169155121	11.44691
11.3309469223022	13.29342
11.3465669155121	14.99537
11.3621969223022	16.62621
11.3778269290924	18.17812
11.3934469223022	19.55635
11.4090769290924	20.58445
11.4246969223022	21.09974
11.4403269290924	21.03219
11.4559469223022	20.43424
11.4715769290924	19.46387
11.4872069358826	18.32326
11.5028269290924	17.2074
11.5184569358826	16.21688
11.5340769290924	15.36751
11.5497069358826	14.62104
11.5653269290924	13.96987
11.5809569358826	13.4724
11.5965869426727	13.25562
11.6122069358826	13.44248
11.6278369426727	14.09448
11.6434569358826	15.18726
11.6590869426727	16.64365
11.6747069358826	18.34937
11.6903369426727	20.18917
11.7059669494629	22.00282
11.7215869426727	23.52142
11.7372169494629	24.36028
11.7528369426727	24.10522
11.7684669494629	22.46034
11.7840869426727	19.41151
11.7997169494629	15.29643
11.8153469562531	10.73716
11.8309669494629	6.429626
11.8465969562531	2.923561
11.8622169494629	0.4584885
11.8778469562531	-1.049011
11.8934669494629	-1.899445
11.9090969562531	-2.457123
11.9247269630432	-3.02343
11.9403469562531	-3.761162
11.9559769630432	-4.671661
11.9715969562531	-5.642136
11.9872269630432	-6.519012
12.0028469562531	-7.152878
12.0184769630432	-7.478928
12.0341069698334	-7.482384
12.0497269630432	-7.186729
12.0653569698334	-6.611534
12.0809769630432	-5.757942
12.0966069698334	-4.636826
12.1122269630432	-3.3274
12.1278569698334	-1.999001
12.1434869766235	-0.9154205
12.1591069698334	-0.3330841
12.1747369766235	-0.4341278
12.1903569698334	-1.237358
12.2059869766235	-2.604362
12.2216069698334	-4.303497
12.2372369766235	-6.08947
12.2528669834137	-7.792755
12.2684869766235	-9.314537
12.2841169834137	-10.64139
12.2997369766235	-11.78427
12.3153669834137	-12.76084
12.3309869766235	-13.57228
12.3466169834137	-14.17764
12.3622469902039	-14.49937
12.3778669834137	-14.44299
12.3934969902039	-13.95143
12.4091169834137	-13.02707
12.4247469902039	-11.77532
12.440376996994	-10.37913
12.4559969902039	-9.088684
12.471626996994	-8.145493
12.4872469902039	-7.730568
12.502876996994	-7.936485
12.5184969902039	-8.747467
12.534126996994	-10.02779
12.5497570037842	-11.52715
12.565376996994	-12.93477
12.5810070037842	-13.91872
12.596626996994	-14.2296
12.6122570037842	-13.77046
12.627876996994	-12.59761
12.6435070037842	-10.86755
12.6591370105743	-8.702057
12.6747570037842	-6.143692
12.6903870105743	-3.148529
12.7060070037842	0.3085938
12.7216370105743	4.102409
12.7372570037842	7.926125
12.7528870105743	11.32585
12.7685170173645	13.86153
12.7841370105743	15.23336
12.7997670173645	15.39877
12.8153870105743	14.54681
12.8310170173645	12.99275
12.8466370105743	11.06798
12.8622670173645	9.025864
12.8778970241547	7.021317
12.8935170173645	5.122147
12.9091470241547	3.370987
12.9247670173645	1.824829
12.9403970241547	0.6063232
12.9560170173645	-0.1390076
12.9716470241547	-0.3072662
12.9872770309448	0.06469727
13.0028970241547	0.7476196
13.0185270309448	1.360275
13.0341470241547	1.533661
13.0497770309448	1.074051
13.0653970241547	0.04878235
13.0810270309448	-1.248993
13.096657037735	-2.456543
13.1122770309448	-3.312012
13.127907037735	-3.752701
13.1435270309448	-3.888718
13.159157037735	-3.87059
13.1747770309448	-3.795212
13.190407037735	-3.661591
13.2060370445251	-3.455505
13.221657037735	-3.213272
13.2372870445251	-3.030624
13.252907037735	-2.982803
13.2685370445251	-2.999924
13.284157037735	-2.84996
13.2997870445251	-2.209381
13.3154170513153	-0.8592834
13.3310370445251	1.180908
13.3466670513153	3.605164
13.3622870445251	5.948959
13.3779170513153	7.815308
13.3935370445251	9.032898
13.4091670513153	9.71225
13.4247970581055	10.11469
13.4404170513153	10.46997
13.4560470581055	10.84187
13.4716670513153	11.14687
13.4872970581055	11.25777
13.5029170513153	11.13463
13.5185470581055	10.87737
13.5341770648956	10.65468
13.5497970581055	10.60567
13.5654270648956	10.7318
13.5810470581055	10.8972
13.5966770648956	10.90607
13.6122970581055	10.61809
13.6279270648956	10.01691
13.6435570716858	9.201309
13.6591770648956	8.33432
13.6748070716858	7.541214
13.6904270648956	6.888367
13.7060570716858	6.374435
13.7216770648956	5.964142
13.7373070716858	5.618469
13.752937078476	5.318863
13.7685570716858	5.042709
13.784187078476	4.783585
13.7998070716858	4.531418
13.815437078476	4.269241
13.8310570716858	3.992676
13.846687078476	3.721649
13.8623170852661	3.48526
13.877937078476	3.325577
13.8935670852661	3.264099
13.909187078476	3.261566
13.9248170852661	3.250244
13.940437078476	3.127899
13.9560670852661	2.799667
13.9716970920563	2.212173
13.9873170852661	1.35907
14.0029470920563	0.2537384
14.0185670852661	-1.052185
14.0341970920563	-2.519821
14.0498170852661	-4.117599
14.0654470920563	-5.820877
14.0810770988464	-7.603851
14.0966970920563	-9.41893
14.1123270988464	-11.17468
14.1279470920563	-12.69525
14.1435770988464	-13.74591
14.1591970920563	-14.06436
14.1748270988464	-13.42741
14.1904571056366	-11.75018
14.2060770988464	-9.131287
14.2217071056366	-5.833054
14.2373270988464	-2.204636
14.2529571056366	1.422684
14.2685770988464	4.79924
14.2842071056366	7.767212
14.2998371124268	10.2337
14.3154571056366	12.10551
14.3310871124268	13.29025
14.3467071056366	13.7184
14.3623371124268	13.38306
14.3779571056366	12.37878
14.3935871124268	10.91702
14.4092171192169	9.263184
14.4248371124268	7.698608
14.4404671192169	6.433792
14.4560871124268	5.579788
14.4717171192169	5.141068
14.4873371124268	5.021927
14.5029671192169	5.045944
14.5185971260071	5.032059
14.5342171192169	4.854675
14.5498471260071	4.493271
14.5654671192169	4.024536
14.5810971260071	3.587906
14.5967171192169	3.298492
14.6123471260071	3.181259
14.6279768943787	3.169891
14.6435971260071	3.142944
14.6592268943787	2.988022
14.6748471260071	2.684036
14.6904768943787	2.289505
14.7061069011688	1.89151
14.7217268943787	1.535126
14.7373569011688	1.184174
14.7529768943787	0.7561798
14.7686069011688	0.1845856
14.7842268943787	-0.5233307
14.7998569011688	-1.26622
14.815486907959	-1.917816
14.8311069011688	-2.3992
14.846736907959	-2.721298
14.8623569011688	-2.978806
14.877986907959	-3.287674
14.8936069011688	-3.717133
14.909236907959	-4.261093
14.9248669147491	-4.835144
14.940486907959	-5.348587
14.9561169147491	-5.73378
14.971736907959	-5.969376
14.9873669147491	-6.081802
15.002986907959	-6.121994
15.0186169147491	-6.15303
15.0342469215393	-6.235474
15.0498669147491	-6.408951
15.0654969215393	-6.680191
15.0811169147491	-7.011444
15.0967469215393	-7.320267
15.1123669147491	-7.485168
15.1279969215393	-7.363953
15.1436269283295	-6.832382
15.1592469215393	-5.819946
15.1748769283295	-4.346375
15.1904969215393	-2.535049
15.2061269283295	-0.5941162
15.2217469215393	1.241806
15.2373769283295	2.765198
15.2530069351196	3.859192
15.2686269283295	4.502411
15.2842569351196	4.75148
15.2998769283295	4.700867
15.3155069351196	4.457993
15.3311269283295	4.135956
15.3467569351196	3.84465
15.3623869419098	3.682495
15.3780069351196	3.709854
15.3936369419098	3.930725
15.4092569351196	4.272507
15.4248869419098	4.634109
15.4405069351196	4.922379
15.4561369419098	5.083405
15.4717669487	5.111618
15.4873869419098	5.024078
15.5030169487	4.83902
15.5186369419098	4.562332
15.5342669487	4.22113
15.5498869419098	3.857208
15.5655169487	3.537125
15.5811469554901	3.307602
15.5967669487	3.173874
15.6123969554901	3.098969
15.6280169487	3.021362
15.6436469554901	2.885773
15.6592669487	2.663666
15.6748969554901	2.343445
15.6905269622803	1.915344
15.7061469554901	1.360413
15.7217769622803	0.6712341
15.7373969554901	-0.1189728
15.7530269622803	-0.9256897
15.7686469554901	-1.632156
15.7842769622803	-2.142471
15.7999069690704	-2.446503
15.8155269622803	-2.616608
15.8311569690704	-2.755264
15.8467769622803	-2.931229
15.8624069690704	-3.136902
15.8780269622803	-3.32016
15.8936569690704	-3.434784
15.9092869758606	-3.481537
15.9249069690704	-3.512344
15.9405369758606	-3.582306
15.9561569690704	-3.708633
15.9717869758606	-3.855148
15.9874069690704	-3.952026
16.0030369758606	-3.961624
16.0186669826508	-3.901199
16.0342869758606	-3.86058
16.0499169826508	-3.927094
16.0655369758606	-4.129654
16.0811669826508	-4.388077
16.0967869758606	-4.525299
16.1124169826508	-4.336884
16.1280469894409	-3.688843
16.1436669826508	-2.599091
16.1592969894409	-1.23465
16.1749169826508	0.1416779
16.1905469894409	1.31105
16.2061669826508	2.190857
16.2217969894409	2.848557
16.2374269962311	3.431595
16.2530469894409	4.033127
16.2686769962311	4.611023
16.2842969894409	5.032303
16.2999269962311	5.163605
16.3155469894409	4.987549
16.3311769962311	4.669907
16.3468070030212	4.466949
16.3624269962311	4.605652
16.3780570030212	5.152069
16.3936769962311	5.988327
16.4093070030212	6.888062
16.4249269962311	7.65213
16.4405570030212	8.210663
16.4561870098114	8.634644
16.4718070030212	9.065079
16.4874370098114	9.600586
16.5030570030212	10.23462
16.5186870098114	10.84198
16.5343070030212	11.23717
16.5499370098114	11.2778
16.5655670166016	10.93323
16.5811870098114	10.30078
16.5968170166016	9.553024
16.6124370098114	8.860428
16.6280670166016	8.317383
16.6436870098114	7.930725
16.6593170166016	7.636002
16.6749470233917	7.342529
16.6905670166016	6.967789
16.7061970233917	6.455887
16.7218170166016	5.74791
16.7374470233917	4.79715
16.7530670166016	3.597321
16.7686970233917	2.209442
16.7843270301819	0.8103943
16.7999470233917	-0.3593597
16.8155770301819	-1.119217
16.8311970233917	-1.419205
16.8468270301819	-1.390366
16.862457036972	-1.294373
16.8780770301819	-1.420792
16.893707036972	-1.959793
16.9093270301819	-2.934036
16.924957036972	-4.165527
16.9405770301819	-5.343086
16.956207036972	-6.104248
16.9718370437622	-6.112572
16.987457036972	-5.134018
17.0030870437622	-3.042198
17.018707036972	0.1358566
17.0343370437622	4.259163
17.049957036972	9.080109
17.0655870437622	14.29365
17.0812170505524	19.6147
17.0968370437622	24.8051
17.1124670505524	29.70065
17.1280870437622	34.20071
17.1437170505524	38.28276
17.1593370437622	41.98377
17.1749670505524	45.41273
17.1905970573425	48.7029
17.2062170505524	51.96245
17.2218470573425	55.19667
17.2374670505524	58.28054
17.2530970573425	60.97753
17.2687170505524	62.98815
17.2843470573425	64.08972
17.2999770641327	64.25031
17.3155970573425	63.73958
17.3312270641327	63.07335
17.3468470573425	62.87009
17.3624770641327	63.59861
17.3780970573425	65.32664
17.3937270641327	67.494
17.4093570709229	68.88109
17.4249770641327	67.82394
17.4406070709229	62.59535
17.4562270641327	52.00425
17.4718570709229	35.87747
17.4874770641327	15.35648
17.5031070709229	-7.190817
17.518737077713	-28.66561
17.5343570709229	-45.98489
17.549987077713	-56.89372
17.5656070709229	-60.50963
17.581237077713	-57.52208
17.5968570709229	-49.85708
17.612487077713	-40.06438
17.6281170845032	-30.57475
17.643737077713	-23.07723
17.6593670845032	-18.251
17.674987077713	-15.89606
17.6906170845032	-15.3377
17.706237077713	-15.89812
17.7218670845032	-17.22567
17.7374970912933	-19.31362
17.7531170845032	-22.28229
17.7687470912933	-26.10257
17.7843670845032	-30.42426
17.7999970912933	-34.66469
17.8156170845032	-38.19284
17.8312470912933	-40.53542
17.8468770980835	-41.45491
17.8624970912933	-40.89381
17.8781270980835	-38.84766
17.8937470912933	-35.37436
17.9093770980835	-30.63031
17.9249970912933	-24.98862
17.9406270980835	-19.09242
17.9562571048737	-13.70152
17.9718770980835	-9.446228
17.9875071048737	-6.619385
18.0031270980835	-5.14859
18.0187571048737	-4.741608
18.0343770980835	-5.145874
18.0500071048737	-6.352112
18.0656371116638	-8.58522
18.0812571048737	-12.15222
18.0968871116638	-17.15663
18.1125071048737	-23.31783
18.1281371116638	-29.961
18.1437571048737	-36.1824
18.1593871116638	-41.10577
18.175017118454	-44.09492
18.1906371116638	-44.84612
18.206267118454	-43.36703
18.2218871116638	-39.91608
18.237517118454	-34.92093
18.2531371116638	-28.95035
18.268767118454	-22.61464
18.2843971252441	-16.48915
18.300017118454	-11.00128
18.3156471252441	-6.343567
18.331267118454	-2.482361
18.3468971252441	0.7834778
18.362517118454	3.705139
18.3781471252441	6.46106
18.3937768936157	9.068787
18.4093971252441	11.3822
18.4250268936157	13.164
18.4406471252441	14.2038
18.4562768936157	14.47302
18.4718971252441	14.16702
18.4875268936157	13.681
18.5031569004059	13.44629
18.5187768936157	13.75311
18.5344069004059	14.63907
18.5500268936157	15.88776
18.5656569004059	17.16794
18.5812768936157	18.25189
18.5969069004059	19.14011
18.612536907196	20.03162
18.6281569004059	21.1669
18.643786907196	22.62317
18.6594069004059	24.22675
18.675036907196	25.65366
18.6906569004059	26.65201
18.706286907196	27.2821
18.7219169139862	27.94006
18.737536907196	29.1926
18.7531669139862	31.48438
18.768786907196	34.87997
18.7844169139862	39.00412
18.800036907196	43.16336
18.8156669139862	46.61685
18.8312969207764	48.75635
18.8469169139862	49.1969
18.8625469207764	47.7041
18.8781669139862	44.14053
18.8937969207764	38.46753
18.9094169139862	30.84277
18.9250469207764	21.68393
18.9406769275665	11.65518
18.9562969207764	1.541779
18.9719269275665	-8.004272
18.9875469207764	-16.57834
19.0031769275665	-24.04355
19.0187969207764	-30.43509
19.0344269275665	-35.81839
19.0500569343567	-40.26593
19.0656769275665	-43.89139
19.0813069343567	-46.8685
19.0969269275665	-49.41409
19.1125569343567	-51.71616
19.1281769275665	-53.84888
19.1438069343567	-55.79047
19.1594369411469	-57.51511
19.1750569343567	-59.10962
19.1906869411469	-60.84912
19.2063069343567	-63.11459
19.2219369411469	-66.24359
19.2375569343567	-70.36142
19.2531869411469	-75.33307
19.268816947937	-80.83466
19.2844369411469	-86.43927
19.300066947937	-91.70673
19.3156869411469	-96.14111
19.331316947937	-99.16141
19.3469369411469	-100.1012
19.362566947937	-98.37915
19.3781969547272	-93.72153
19.393816947937	-86.36823
19.4094469547272	-77.06534
19.425066947937	-66.8891
19.4406969547272	-56.92648
19.456316947937	-47.97449
19.4719469547272	-40.43188
19.4875769615173	-34.28958
19.5031969547272	-29.28314
19.5188269615173	-25.0163
19.5344469547272	-21.02707
19.5500769615173	-16.84052
19.5657069683075	-12.04468
19.5813269615173	-6.432465
19.5969569683075	-0.1103821
19.6125769615173	6.480042
19.6282069683075	12.69809
19.6438269615173	17.89474
19.6594569683075	21.59366
19.6750869750977	23.57748
19.6907069683075	23.86163
19.7063369750977	22.63348
19.7219569683075	20.22275
19.7375869750977	17.0762
19.7532069683075	13.77744
19.7688369750977	10.91852
19.7844669818878	8.985596
19.8000869750977	8.216095
19.8157169818878	8.537537
19.8313369750977	9.621429
19.8469669818878	11.01611
19.8625869750977	12.26782
19.8782169818878	12.99478
19.893846988678	12.91595
19.9094669818878	11.86362
19.925096988678	9.804474
19.9407169818878	6.848053
19.956346988678	3.275116
19.9719669818878	-0.5093079
19.987596988678	-4.047821
20.0032269954681	-6.920288
20.018846988678	-8.847626
20.0344769954681	-9.740082
20.050096988678	-9.74234
20.0657269954681	-9.169464
20.081346988678	-8.456146
20.0969769954681	-8.027039
20.1126070022583	-8.199585
20.1282269954681	-9.08017
20.1438570022583	-10.53131
20.1594769954681	-12.22885
20.1751070022583	-13.78052
20.1907269954681	-14.87814
20.2063570022583	-15.40714
20.2219870090485	-15.48752
20.2376070022583	-15.37393
20.2532370090485	-15.31439
20.2688570022583	-15.42294
20.2844870090485	-15.59741
20.3001070022583	-15.55545
20.3157370090485	-14.93127
20.3313670158386	-13.41281
20.3469870090485	-10.83127
20.3626170158386	-7.203278
20.3782370090485	-2.722961
20.3938670158386	2.24707
20.4094870090485	7.234467
20.4251170158386	11.74707
20.4407470226288	15.37048
20.4563670158386	17.88675
20.4719970226288	19.32217
20.4876170158386	19.92676
20.5032470226288	20.06171
20.5188670158386	20.09689
20.5344970226288	20.30029
20.5501270294189	20.80701
20.5657470226288	21.64426
20.5813770294189	22.75522
20.5969970226288	24.06143
20.6126270294189	25.47078
20.6282470226288	26.90727
20.6438770294189	28.31506
20.6595070362091	29.66301
20.6751270294189	30.93291
20.6907570362091	32.10393
20.7063770294189	33.14658
20.7220070362091	33.98848
20.7376270294189	34.53311
20.7532570362091	34.65535
20.7688870429993	34.2083
20.7845070362091	33.04466
20.8001370429993	31.04442
20.8157570362091	28.15948
20.8313870429993	24.45393
20.8470070362091	20.10553
20.8626370429993	15.37494
20.8782670497894	10.543
20.8938870429993	5.859512
20.9095170497894	1.497742
20.9251370429993	-2.421692
20.9407670497894	-5.857422
20.9563870429993	-8.814484
20.9720170497894	-11.35294
20.9876470565796	-13.57373
21.0032670497894	-15.5937
21.0188970565796	-17.51015
21.0345170497894	-19.40184
21.0501470565796	-21.32578
21.0657670497894	-23.34047
21.0813970565796	-25.49965
21.0970270633698	-27.76509
21.1126470565796	-29.93092
21.1282770633698	-31.5831
21.1438970565796	-32.17474
21.1595270633698	-31.22594
21.1751470565796	-28.52968
21.1907770633698	-24.28041
21.2064070701599	-19.00806
21.2220270633698	-13.3829
21.2376570701599	-7.962219
21.2532770633698	-3.055374
21.2689070701599	1.261261
21.2845270633698	5.009308
21.3001570701599	8.173904
21.3157870769501	10.65952
21.3314070701599	12.34875
21.3470370769501	13.20726
21.3626570701599	13.35612
21.3782870769501	13.04901
21.3939070701599	12.58321
21.4095370769501	12.20358
21.4251670837402	12.04442
21.4407870769501	12.11278
21.4564170837402	12.3403
21.4720370769501	12.63025
21.4876670837402	12.89191
21.5032870769501	13.05875
21.5189170837402	13.09384
21.5345470905304	12.97469
21.5501670837402	12.67765
21.5657970905304	12.18745
21.5814170837402	11.50468
21.5970470905304	10.65271
21.6126670837402	9.693977
21.6282970905304	8.694893
21.6439270973206	7.695236
21.6595470905304	6.679512
21.6751770973206	5.57238
21.6907970905304	4.267273
21.7064270973206	2.691994
21.7220571041107	0.8491821
21.7376770973206	-1.164108
21.7533071041107	-3.197861
21.7689270973206	-5.109352
21.7845571041107	-6.816231
21.8001770973206	-8.320236
21.8158071041107	-9.676872
21.8314371109009	-10.96336
21.8470571041107	-12.22044
21.8626871109009	-13.42886
21.8783071041107	-14.47845
21.8939371109009	-15.17707
21.9095571041107	-15.27681
21.9251871109009	-14.51556
21.940817117691	-12.74223
21.9564371109009	-9.968681
21.972067117691	-6.382172
21.9876871109009	-2.305954
22.003317117691	1.884205
22.0189371109009	5.858814
22.034567117691	9.4072
22.0501971244812	12.43656
22.065817117691	14.95005
22.0814471244812	16.95558
22.097067117691	18.43945
22.1126971244812	19.34762
22.128317117691	19.64843
22.1439471244812	19.39352
22.1595768928528	18.74955
22.1751971244812	17.98311
22.1908268928528	17.36098
22.2064471244812	17.07551
22.2220768928528	17.14912
22.2376971244812	17.46813
22.2533268928528	17.82369
22.2689568996429	18.02634
22.2845768928528	17.9571
22.3002068996429	17.58371
22.3158268928528	16.9335
22.3314568996429	16.04232
22.3470768928528	14.94796
22.3627068996429	13.70409
22.3783369064331	12.38425
22.3939568996429	11.077
22.4095869064331	9.839085
22.4252068996429	8.658953
22.4408369064331	7.437775
22.4564568996429	6.045517
22.4720869064331	4.381748
22.4877169132233	2.466791
22.5033369064331	0.4485798
22.5189669132233	-1.453285
22.5345869064331	-3.041424
22.5502169132233	-4.227451
22.5658369064331	-5.072104
22.5814669132233	-5.776283
22.5970969200134	-6.577099
22.6127169132233	-7.703663
22.6283469200134	-9.291142
22.6439669132233	-11.33847
22.6595969200134	-13.69353
22.6752169132233	-16.06918
22.6908469200134	-18.06731
22.7064769268036	-19.25721
22.7220969200134	-19.28555
22.7377269268036	-17.94267
22.7533469200134	-15.26337
22.7689769268036	-11.47672
22.7845969200134	-6.985718
22.8002269268036	-2.261614
22.8158569335938	2.225871
22.8314769268036	6.088943
22.8471069335938	9.07399
22.8627269268036	11.09437
22.8783569335938	12.2569
22.8939769268036	12.79809
22.9096069335938	13.00224
22.9252369403839	13.10342
22.9408569335938	13.21994
22.9564869403839	13.34834
22.9721069335938	13.41287
22.9877369403839	13.34099
23.0033569335938	13.09616
23.0189869403839	12.7119
23.0346169471741	12.25877
23.0502369403839	11.81822
23.0658669471741	11.43065
23.0814869403839	11.1001
23.0971169471741	10.79003
23.1127369403839	10.45035
23.1283669471741	10.01284
23.1439969539642	9.40406
23.1596169471741	8.531807
23.1752469539642	7.298599
23.1908669471741	5.635945
23.2064969539642	3.548045
23.2221169471741	1.157002
23.2377469539642	-1.313148
23.2533769607544	-3.595696
23.2689969539642	-5.465886
23.2846269607544	-6.827063
23.3002469539642	-7.734459
23.3158769607544	-8.345544
23.3314969539642	-8.814572
23.3471269607544	-9.237698
23.3627569675446	-9.607682
23.3783769607544	-9.876903
23.3940069675446	-9.999864
23.4096269607544	-10.00133
23.4252569675446	-9.970062
23.4408769607544	-10.03432
23.4565069675446	-10.31976
23.4721369743347	-10.89025
23.4877569675446	-11.70134
23.5033869743347	-12.57582
23.5190069675446	-13.21801
23.5346369743347	-13.26466
23.5502569675446	-12.37142
23.5658869743347	-10.33221
23.5815169811249	-7.151899
23.5971369743347	-3.088526
23.6127669811249	1.42886
23.6283869743347	5.93202
23.6440169811249	10.06957
23.6596369743347	13.66315
23.6752669811249	16.68543
23.690896987915	19.16373
23.7065169811249	21.06979
23.722146987915	22.33153
23.7377669811249	22.89295
23.753396987915	22.82498
23.7690169811249	22.36293
23.784646987915	21.83868
23.8002769947052	21.52836
23.815896987915	21.53172
23.8315269947052	21.75307
23.847146987915	21.95888
23.8627769947052	21.9282
23.878396987915	21.5606
23.8940269947052	20.89735
23.9096570014954	20.05569
23.9252769947052	19.15594
23.9409070014954	18.24491
23.9565269947052	17.29008
23.9721570014954	16.21383
23.9877769947052	14.93274
24.0034070014954	13.40197
24.0190370082855	11.64949
24.0346570014954	9.769488
24.0502870082855	7.911746
24.0659070014954	6.22594
24.0815370082855	4.78659
24.0971670150757	3.541011
24.1127870082855	2.3381
24.1284170150757	0.9807386
24.1440370082855	-0.6592646
24.1596670150757	-2.589593
24.1752870082855	-4.702076
24.1909170150757	-6.828589
24.2065470218658	-8.825233
24.2221670150757	-10.61884
24.2377970218658	-12.21146
24.2534170150757	-13.68638
24.2690470218658	-15.16827
24.2846670150757	-16.77687
24.3002970218658	-18.57372
24.315927028656	-20.50283
24.3315470218658	-22.35264
24.347177028656	-23.79759
24.3627970218658	-24.48294
24.378427028656	-24.13365
24.3940470218658	-22.64772
24.409677028656	-20.15752
24.4253070354462	-16.95539
24.440927028656	-13.42357
24.4565570354462	-9.933668
24.472177028656	-6.766473
24.4878070354462	-4.109947
24.503427028656	-2.065997
24.5190570354462	-0.6886921
24.5346870422363	0.03741074
24.5503070354462	0.1713943
24.5659370422363	-0.1015453
24.5815570354462	-0.5301018
24.5971870422363	-0.8302355
24.6128070354462	-0.7540264
24.6284370422363	-0.2064161
24.6440670490265	0.7375326
24.6596870422363	1.848492
24.6753170490265	2.850452
24.6909370422363	3.548831
24.7065670490265	3.919618
24.7221870422363	4.055336
24.7378170490265	4.116313
24.7534470558167	4.199941
24.7690670490265	4.304388
24.7846970558167	4.347803
24.8003170490265	4.251887
24.8159470558167	4.003506
24.8315670490265	3.65176
24.8471970558167	3.278682
24.8628270626068	2.912648
24.8784470558167	2.512169
24.8940770626068	1.980092
24.9096970558167	1.196863
24.9253270626068	0.1083612
24.9409470558167	-1.263519
24.9565770626068	-2.79892
24.972207069397	-4.347783
24.9878270626068	-5.757172
25.003457069397	-6.937013
25.0190770626068	-7.890562
25.034707069397	-8.677007
25.0503270626068	-9.393488
25.065957069397	-10.10928
25.0815870761871	-10.87236
25.097207069397	-11.69174
25.1128370761871	-12.56647
25.128457069397	-13.46869
25.1440870761871	-14.32218
25.159707069397	-14.94778
25.1753370761871	-15.06346
25.1909670829773	-14.34396
25.2065870761871	-12.54492
25.2222170829773	-9.647287
25.2378370761871	-5.911161
25.2534670829773	-1.80446
25.2690870761871	2.179034
25.2847170829773	5.668019
25.3003470897675	8.493904
25.3159670829773	10.65936
25.3315970897675	12.20474
25.3472170829773	13.139
25.3628470897675	13.42605
25.3784670829773	13.06407
25.3940970897675	12.17151
25.4097270965576	10.99111
25.4253470897675	9.831476
25.4409770965576	8.947822
25.4565970897675	8.459992
25.4722270965576	8.332769
25.4878470897675	8.422015
25.5034770965576	8.561087
25.5191071033478	8.605026
25.5347270965576	8.46398
25.5503571033478	8.084964
25.5659770965576	7.462994
25.5816071033478	6.623095
25.5972270965576	5.616018
25.6128571033478	4.527837
25.6284871101379	3.424413
25.6441071033478	2.334754
25.6597371101379	1.249723
25.6753571033478	0.1367311
25.6909871101379	-1.035012
25.7066071033478	-2.273349
25.7222371101379	-3.556308
25.7378671169281	-4.861225
25.7534871101379	-6.177421
25.7691171169281	-7.49861
25.7847371101379	-8.813692
25.8003671169281	-10.10929
25.8159871101379	-11.34226
25.8316171169281	-12.46642
25.8472471237183	-13.45683
25.8628671169281	-14.32878
25.8784971237183	-15.18399
25.8941171169281	-16.16197
25.9097471237183	-17.37521
25.9253671169281	-18.77515
25.9409971237183	-20.0675
25.9566271305084	-20.75921
25.9722471237183	-20.31071
25.9878771305084	-18.39158
26.0034971237183	-15.03587
26.0191271305084	-10.68489
26.0347471237183	-5.991077
26.0503771305084	-1.572459
26.06600689888	2.19351
26.0816271305084	5.223931
26.09725689888	7.611054
26.1128771305084	9.446659
26.12850689888	10.73705
26.1441271305084	11.42012
26.15975689888	11.47534
26.1753869056702	11.0465
26.19100689888	10.417
26.2066369056702	9.921425
26.22225689888	9.805547
26.2378869056702	10.11027
26.25350689888	10.69306
26.2691369056702	11.32244
26.2847669124603	11.81816
26.3003869056702	12.12059
26.3160169124603	12.30673
26.3316369056702	12.52902
26.3472669124603	12.89135
26.3628869056702	13.38554
26.3785169124603	13.87558
26.3941469192505	14.14443
26.4097669124603	13.99845
26.4253969192505	13.35218
26.4410169124603	12.26961
26.4566469192505	10.92902
26.4722669124603	9.558097
26.4878969192505	8.325031
26.5035269260406	7.274139
26.5191469192505	6.320034
26.5347769260406	5.282842
26.5503969192505	3.991725
26.5660269260406	2.36603
26.5816569328308	0.4445655
26.5972769260406	-1.614449
26.6129069328308	-3.622559
26.6285269260406	-5.4321
26.6441569328308	-6.987921
26.6597769260406	-8.340756
26.6754069328308	-9.59458
26.691036939621	-10.86056
26.7066569328308	-12.19413
26.722286939621	-13.51244
26.7379069328308	-14.59725
26.753536939621	-15.10079
26.7691569328308	-14.65069
26.784786939621	-12.98839
26.8004169464111	-10.09174
26.816036939621	-6.229427
26.8316669464111	-1.901414
26.847286939621	2.326405
26.8629169464111	5.984007
26.878536939621	8.820801
26.8941669464111	10.8244
26.9097969532013	12.13886
26.9254169464111	12.94561
26.9410469532013	13.38068
26.9566669464111	13.50837
26.9722969532013	13.35062
26.9879169464111	12.91886
27.0035469532013	12.24796
27.0191769599915	11.39151
27.0347969532013	10.41148
27.0504269599915	9.357776
27.0660469532013	8.286452
27.0816769599915	7.247248
27.0972969532013	6.304583
27.1129269599915	5.509654
27.1285569667816	4.888735
27.1441769599915	4.414697
27.1598069667816	3.996564
27.1754269599915	3.519971
27.1910569667816	2.879019
27.2066769599915	2.029939
27.2223069667816	1.01106
27.2379369735718	-0.08947372
27.2535569667816	-1.194308
27.2691869735718	-2.278678
27.2848069667816	-3.38677
27.3004369735718	-4.61818
27.3160569667816	-6.053267
27.3316869735718	-7.726851
27.3473169803619	-9.605274
27.3629369735718	-11.61286
27.3785669803619	-13.63356
27.3941869735718	-15.54289
27.4098169803619	-17.23272
27.4254369735718	-18.6219
27.4410669803619	-19.70224
27.4566969871521	-20.54764
27.4723169803619	-21.30244
27.4879469871521	-22.15994
27.5035669803619	-23.25616
27.5191969871521	-24.5673
27.5348169803619	-25.84879
27.5504469871521	-26.65064
27.5660769939423	-26.43706
27.5816969871521	-24.79075
27.5973269939423	-21.57388
27.6129469871521	-17.00728
27.6285769939423	-11.62247
27.6441969871521	-6.100756
27.6598269939423	-1.062706
27.6754570007324	3.057721
27.6910769939423	6.072701
27.7067070007324	8.008333
27.7223269939423	9.012442
27.7379570007324	9.28026
27.7535769939423	9.016942
27.7692070007324	8.400636
27.7848370075226	7.620932
27.8004570007324	6.83407
27.8160870075226	6.177414
27.8317070007324	5.725246
27.8473370075226	5.489161
27.8629570007324	5.397892
27.8785870075226	5.325349
27.8942170143127	5.11354
27.9098370075226	4.609385
27.9254670143127	3.735852
27.9410870075226	2.488914
27.9567170143127	0.9383494
27.9723370075226	-0.801455
27.9879670143127	-2.63591
28.0035970211029	-4.490809
28.0192170143127	-6.320138
28.0348470211029	-8.073038
28.0504670143127	-9.700291
28.0660970211029	-11.15706
28.0817170143127	-12.42081
28.0973470211029	-13.51259
28.1129770278931	-14.49604
28.1285970211029	-15.4443
28.1442270278931	-16.44536
28.1598470211029	-17.53335
28.1754770278931	-18.69603
28.1910970211029	-19.88017
28.2067270278931	-21.00635
28.2223570346832	-22.02025
28.2379770278931	-22.91102
28.2536070346832	-23.69945
28.2692270278931	-24.39929
28.2848570346832	-24.91143
28.3004770278931	-25.00066
28.3161070346832	-24.2527
28.3317370414734	-22.17266
28.3473570346832	-18.36408
28.3629870414734	-12.71812
28.3786070346832	-5.521523
28.3942370414734	2.576443
28.4098570346832	10.74229
28.4254870414734	18.18612
28.4411170482635	24.32241
28.4567370414734	28.84131
28.4723670482635	31.68398
28.4879870414734	32.92882
28.5036170482635	32.73626
28.5192370414734	31.29945
28.5348670482635	28.86604
28.5504970550537	25.70588
28.5661170482635	22.02916
28.5817470550537	17.94793
28.5973670482635	13.47163
28.6129970550537	8.658539
28.6286170482635	3.751762
28.6442470550537	-0.7388687
28.6598770618439	-4.141846
28.6754970550537	-5.850906
28.6911270618439	-5.648804
28.7067470550537	-3.862366
28.7223770618439	-1.308563
28.7379970550537	0.9614792
28.7536270618439	1.969437
28.769257068634	1.058342
28.7848770618439	-2.012772
28.800507068634	-7.127174
28.8161270618439	-13.88421
28.831757068634	-21.70762
28.8473870754242	-29.89554
28.863007068634	-37.65987
28.8786370754242	-44.19453
28.894257068634	-48.81231
28.9098870754242	-51.0667
28.925507068634	-50.81287
28.9411370754242	-48.25764
28.9567670822144	-43.84554
28.9723870754242	-38.10751
28.9880170822144	-31.47211
29.0036370754242	-24.20487
29.0192670822144	-16.47211
29.0348870754242	-8.404488
29.0505170822144	-0.1702576
29.0661470890045	7.982407
29.0817670822144	15.72292
29.0973970890045	22.71181
29.1130170822144	28.70139
29.1286470890045	33.62535
29.1442670822144	37.56621
29.1598970890045	40.65694
29.1755270957947	43.01729
29.1911470890045	44.72516
29.2067770957947	45.88397
29.2223970890045	46.57071
29.2380270957947	46.85381
29.2536470890045	46.74034
29.2692770957947	46.24803
29.2849071025848	45.28822
29.3005270957947	43.67213
29.3161571025848	41.22162
29.3317770957947	37.88895
29.3474071025848	34.01878
29.3630270957947	30.05983
29.3786571025848	26.45239
29.394287109375	23.39093
29.4099071025848	21.00311
29.425537109375	19.19679
29.4411571025848	17.73373
29.456787109375	16.36263
29.4724071025848	14.94666
29.488037109375	13.85507
29.5036671161652	13.45154
29.519287109375	14.00043
29.5349171161652	15.52797
29.550537109375	18.39001
29.5661671161652	22.89911
29.581787109375	29.1541
29.5974171161652	36.84505
29.6130471229553	45.26894
29.6286671161652	53.89655
29.6442971229553	61.77084
29.6599171161652	67.68996
29.6755471229553	70.35629
29.6911671161652	69.54303
29.7067971229553	65.66333
29.7224271297455	59.5563
29.7380471229553	52.14917
29.7536771297455	44.31041
29.7692971229553	37.31795
29.7849271297455	31.6344
29.8005471229553	26.75887
29.8161771297455	21.25542
29.8318068981171	14.35509
29.8474271297455	5.805283
29.8630568981171	-3.944885
29.8786771297455	-13.85499
29.8943068981171	-26.42356
29.9099271297455	-40.91041
29.9255568981171	-54.54327
29.9411869049072	-62.40992
29.9568068981171	-65.52882
29.9724369049072	-65.51794
29.9880568981171	-63.97675
30.0036869049072	-61.09695
30.0193068981171	-56.60265
30.0349369049072	-50.3432
30.0505669116974	-42.08056
30.0661869049072	-32.5993
30.0818169116974	-23.4419
30.0974369049072	-16.50344
30.1130669116974	-12.31177
30.1286869049072	-10.49414
30.1443169116974	-10.06635
30.1599469184875	-10.00903
30.1755669116974	-9.595444
30.1911969184875	-8.067867
30.2068169116974	-5.447433
30.2224469184875	-2.385914
30.2380669116974	0.02314758
30.2536969184875	1.4538
30.2693269252777	1.977276
30.2849469184875	1.85413
30.3005769252777	1.218491
30.3161969184875	-0.001693726
30.3318269252777	-1.683094
30.3474469184875	-3.866562
30.3630769252777	-6.601021
30.3787069320679	-9.943443
30.3943269252777	-13.37601
30.4099569320679	-16.25294
30.4255769252777	-18.05708
30.4412069320679	-18.6372
30.4568269252777	-18.13237
30.4724569320679	-16.71449
30.488086938858	-14.65915
30.5037069320679	-12.27328
30.519336938858	-9.895452
30.5349569320679	-7.602373
30.550586938858	-5.387583
30.5662069320679	-3.246557
30.581836938858	-1.239536
30.5974669456482	0.5142212
30.613086938858	1.96316
30.6287169456482	3.022081
30.644336938858	3.603245
30.6599669456482	3.643641
30.675586938858	3.211895
30.6912169456482	2.483482
30.7068469524384	1.692513
30.7224669456482	1.084095
30.7380969524384	0.835165
30.7537169456482	0.9970131
30.7693469524384	1.483158
30.7849669456482	2.103168
30.8005969524384	2.641911
30.8162269592285	2.968876
30.8318469524384	3.082645
30.8474769592285	3.088261
30.8630969524384	3.121376
30.8787269592285	3.25142
30.8943469524384	3.417133
30.9099769592285	3.484073
30.9256069660187	3.337027
30.9412269592285	2.958664
30.9568569660187	2.474752
30.9724769592285	2.067183
30.9881069660187	1.883675
31.0037269592285	1.940772
31.0193569660187	2.125451
31.0349869728088	2.247076
31.0506069660187	2.145387
31.0662369728088	1.765337
31.0818569660187	1.181555
31.0974869728088	0.5465412
31.1131069660187	0.04606378
31.1287369728088	-0.1561452
31.144366979599	0.04936373
31.1599869728088	0.7131586
31.175616979599	1.813442
31.1912369728088	3.257379
31.206866979599	4.90026
31.2224869728088	6.558424
31.238116979599	8.075726
31.2537469863892	9.324264
31.269366979599	10.24128
31.2849969863892	10.81384
31.300616979599	11.04445
31.3162469863892	10.96319
31.331866979599	10.58751
31.3474969863892	9.930736
31.3631269931793	9.018608
31.3787469863892	7.912264
31.3943769931793	6.698196
31.4099969863892	5.487518
31.4256269931793	4.370031
31.4412469863892	3.375637
31.4568769931793	2.48975
31.4725069999695	1.656504
31.4881269931793	0.8053875
31.5037569999695	-0.0997715
31.5193769931793	-1.040909
31.5350069999695	-1.95871
31.5506370067596	-2.775543
31.5662569999695	-3.483147
31.5818870067596	-4.148003
31.5975069999695	-4.893669
31.6131370067596	-5.847786
31.6287569999695	-7.069942
31.6443870067596	-8.480778
31.6600170135498	-9.92308
31.6756370067596	-11.21425
31.6912670135498	-12.25023
31.7068870067596	-13.03708
31.7225170135498	-13.69132
31.7381370067596	-14.34713
31.7537670135498	-15.09615
31.76939702034	-15.95399
31.7850170135498	-16.84883
31.80064702034	-17.68267
31.8162670135498	-18.31639
31.83189702034	-18.58031
31.8475170135498	-18.25598
31.86314702034	-17.11933
31.8787770271301	-15.01735
31.89439702034	-11.96497
31.9100270271301	-8.217255
31.92564702034	-4.186749
31.9412770271301	-0.3808594
31.95689702034	2.795258
31.9725270271301	5.109085
31.9881570339203	6.537304
32.0037770271301	7.204948
32.0194070339203	7.303219
32.0350270271301	7.02879
32.0506570339203	6.544605
32.0662770271301	5.978645
32.0819070339203	5.418747
32.0975370407104	4.912674
32.1131570339203	4.467049
32.1287870407104	4.042488
32.1444070339203	3.58902
32.1600370407104	3.046432
32.1756570339203	2.392181
32.1912870407104	1.630226
32.2069170475006	0.8356705
32.2225370407104	0.09255981
32.2381670475006	-0.5198212
32.2537870407104	-0.9824219
32.2694170475006	-1.378136
32.2850370407104	-1.885956
32.3006670475006	-2.71154
32.3162970542908	-3.991501
32.3319170475006	-5.724594
32.3475470542908	-7.726013
32.3631670475006	-9.725563
32.3787970542908	-11.47475
32.3944170475006	-12.85667
32.4100470542908	-13.94979
32.4256770610809	-14.94368
32.4412970542908	-16.02711
32.4569270610809	-17.27632
32.4725470542908	-18.64436
32.4881770610809	-19.99929
32.5037970542908	-21.19183
32.5194270610809	-22.08353
32.5350570678711	-22.52822
32.5506770610809	-22.38071
32.5663070678711	-21.48879
32.5819270610809	-19.75515
32.5975570678711	-17.22526
32.6131770610809	-14.12156
32.6288070678711	-10.79879
32.6444370746613	-7.632469
32.6600570678711	-4.907997
32.6756870746613	-2.73642
32.6913070678711	-1.117851
32.7069370746613	-5.340576e-05
32.7225570678711	0.6343842
32.7381870746613	0.7547607
32.7538170814514	0.3596878
32.7694370746613	-0.4735832
32.7850670814514	-1.573273
32.8006870746613	-2.733265
32.8163170814514	-3.772964
32.8319370746613	-4.642647
32.8475670814514	-5.390553
32.8631970882416	-6.118359
32.8788170814514	-6.890755
32.8944470882416	-7.664291
32.9100670814514	-8.324554
32.9256970882416	-8.758728
32.9413170814514	-8.952858
32.9569470882416	-8.991219
32.9725770950317	-9.046391
32.9881970882416	-9.291451
33.0038270950317	-9.823215
33.0194470882416	-10.63106
33.0350770950317	-11.58878
33.0506970882416	-12.49884
33.0663270950317	-13.12207
33.0819571018219	-13.21902
33.0975770950317	-12.60467
33.1132071018219	-11.20517
33.1288270950317	-9.103832
33.1444571018219	-6.5233
33.1600770950317	-3.760418
33.1757071018219	-1.036779
33.1913371086121	1.581413
33.2069571018219	4.230579
33.2225871086121	7.159006
33.2382071018219	10.59622
33.2538371086121	14.58374
33.2694571018219	18.93757
33.2850871086121	23.2692
33.3007171154022	27.11897
33.3163371086121	30.11761
33.3319671154022	32.075
33.3475871086121	33.00682
33.3632171154022	33.11766
33.3788371086121	32.68692
33.3944671154022	31.99453
33.4100971221924	31.24686
33.4257171154022	30.58197
33.4413471221924	30.06078
33.4569671154022	29.71928
33.4725971221924	29.58048
33.4882171154022	29.63023
33.5038471221924	29.81165
33.5194771289825	29.99867
33.5350971221924	30.0133
33.5507271289825	29.66571
33.5663471221924	28.81399
33.5819771289825	27.39698
33.5975971221924	25.45203
33.6132271289825	23.06413
33.6288568973541	20.30401
33.6444771289825	17.17162
33.6601068973541	13.58446
33.6757271289825	9.445069
33.6913568973541	4.737112
33.7069869041443	-0.3963985
33.7226068973541	-5.675765
33.7382369041443	-10.74869
33.7538568973541	-15.34461
33.7694869041443	-19.39985
33.7851068973541	-23.08854
33.8007369041443	-26.71238
33.8163669109344	-30.54797
33.8319869041443	-34.6868
33.8476169109344	-38.97074
33.8632369041443	-42.99791
33.8788669109344	-46.21471
33.8944869041443	-47.99004
33.9101169109344	-47.7704
33.9257469177246	-45.17083
33.9413669109344	-40.1062
33.9569969177246	-32.89061
33.9726169109344	-24.2217
33.9882469177246	-15.08363
34.0038669109344	-6.524685
34.0194969177246	0.5201902
34.0351269245148	5.382445
34.0507469177246	7.707897
34.0663769245148	7.486945
34.0819969177246	5.058818
34.0976269245148	1.056539
34.1132469177246	-3.670383
34.1288769245148	-8.273776
34.1445069313049	-12.09677
34.1601269245148	-14.84774
34.1757569313049	-16.59156
34.1913769245148	-17.59977
34.2070069313049	-18.15619
34.2226269245148	-18.40903
34.2382569313049	-18.37912
34.2538869380951	-18.02926
34.2695069313049	-17.3735
34.2851369380951	-16.495
34.3007569313049	-15.48822
34.3163869380951	-14.34826
34.3320069313049	-12.91631
34.3476369380951	-10.95085
34.3632669448853	-8.211629
34.3788869380951	-4.550401
34.3945169448853	0.06153059
34.4101369380951	5.532782
34.4257669448853	11.66638
34.4413869380951	18.14954
34.4570169448853	24.58261
34.4726469516754	30.52233
34.4882669448853	35.54326
34.5038969516754	39.36897
34.5195169448853	41.93806
34.5351469516754	43.40622
34.5507669448853	44.06236
34.5663969516754	44.20595
34.5820269584656	44.04242
34.5976469516754	43.6516
34.6132769584656	43.06263
34.6288969516754	42.2793
34.6445269584656	41.36036
34.6601469516754	40.38733
34.6757769584656	39.41833
34.6914069652557	38.47939
34.7070269584656	37.5743
34.7226569652557	36.71736
34.7382769584656	35.89011
34.7539069652557	34.96581
34.7695269584656	33.61467
34.7851569652557	31.36538
34.8007869720459	27.74934
34.8164069652557	22.54843
34.8320369720459	15.97326
34.8476569652557	8.676955
34.8632869720459	1.511885
34.8789069652557	-4.82023
34.8945369720459	-10.06361
34.9101669788361	-14.47966
34.9257869720459	-18.64185
34.9414169788361	-23.08706
34.9570369720459	-27.99592
34.9726669788361	-33.09572
34.9882869720459	-37.80991
35.0039169788361	-41.54456
35.0195469856262	-43.96863
35.0351669788361	-45.09221
35.0507969856262	-45.22712
35.0664169788361	-44.78707
35.0820469856262	-44.07524
35.0976669788361	-43.23568
35.1132969856262	-42.29161
35.1289269924164	-41.27777
35.1445469856262	-40.31011
35.1601769924164	-39.54408
35.1757969856262	-39.04825
35.1914269924164	-38.68745
35.2070469856262	-38.10967
35.2226769924164	-36.84657
35.2383069992065	-34.5483
35.2539269924164	-31.10235
35.2695569992065	-26.72578
35.2851769924164	-21.84333
35.3008069992065	-16.90658
35.3164269924164	-12.22787
35.3320569992065	-7.909161
35.3476870059967	-3.866041
35.3633069992065	0.03236771
35.3789370059967	3.854022
35.3945569992065	7.523898
35.4101870059967	10.83785
35.4258069992065	13.53451
35.4414370059967	15.39405
35.4570670127869	16.30894
35.4726870059967	16.3261
35.4883170127869	15.62659
35.5039370059967	14.4642
35.5195670127869	13.11153
35.5351870059967	11.79045
35.5508170127869	10.6392
35.566447019577	9.680927
35.5820670127869	8.832096
35.597697019577	7.935209
35.6133170127869	6.818388
35.628947019577	5.368656
35.6445670127869	3.573668
35.660197019577	1.535397
35.6758270263672	-0.5776672
35.691447019577	-2.599094
35.7070770263672	-4.438774
35.722697019577	-6.09848
35.7383270263672	-7.663136
35.753947019577	-9.238655
35.7695770263672	-10.89252
35.7852070331573	-12.571
35.8008270263672	-14.08027
35.8164570331573	-15.12182
35.8320770263672	-15.37764
35.8477070331573	-14.63561
35.8633270263672	-12.88131
35.8789570331573	-10.30943
35.8945870399475	-7.254566
35.9102070331573	-4.074947
35.9258370399475	-1.056721
35.9414570331573	1.62421
35.9570870399475	3.870041
35.9727170467377	5.606773
35.9883370399475	6.77346
36.0039670467377	7.340591
36.0195870399475	7.368874
36.0352170467377	7.036453
36.0508370399475	6.596657
36.0664670467377	6.298729
36.0820970535278	6.291473
36.0977170467377	6.548828
36.1133470535278	6.905823
36.1289670467377	7.160736
36.1445970535278	7.170845
36.1602170467377	6.928467
36.1758470535278	6.559196
36.191477060318	6.202919
36.2070970535278	5.934807
36.222727060318	5.70961
36.2383470535278	5.40004
36.253977060318	4.905449
36.2695970535278	4.243385
36.285227060318	3.579979
36.3008570671082	3.129715
36.316477060318	3.039063
36.3321070671082	3.262642
36.347727060318	3.571381
36.3633570671082	3.643105
36.378977060318	3.198479
36.3946070671082	2.148209
36.4102370738983	0.6069717
36.4258570671082	-1.110214
36.4414870738983	-2.60067
36.4571070671082	-3.480629
36.4727370738983	-3.478325
36.4883570671082	-2.487167
36.5039870738983	-0.5728607
36.5196170806885	2.026848
36.5352370738983	4.985977
36.5508670806885	7.907539
36.5664870738983	10.38599
36.5821170806885	12.07602
36.5977370738983	12.73621
36.6133670806885	12.30492
36.6289970874786	10.92218
36.6446170806885	8.913391
36.6602470874786	6.671143
36.6758670806885	4.563843
36.6914970874786	2.821915
36.7071170806885	1.536835
36.7227470874786	0.6952057
36.7383770942688	0.2527771
36.7539970874786	0.1695404
36.7696270942688	0.405426
36.7852470874786	0.890625
36.8008770942688	1.514801
36.8164970874786	2.160934
36.8321270942688	2.745529
36.847757101059	3.257965
36.8633770942688	3.737976
36.879007101059	4.214706
36.8946270942688	4.682953
36.910257101059	5.069977
36.9258770942688	5.29071
36.941507101059	5.296677
36.9571371078491	5.092911
36.972757101059	4.737152
36.9883871078491	4.277039
37.004007101059	3.720978
37.0196371078491	3.000763
37.035257101059	2.05043
37.0508871078491	0.8573608
37.0665171146393	-0.4597321
37.0821371078491	-1.637512
37.0977671146393	-2.353806
37.1133871078491	-2.346924
37.1290171146393	-1.551941
37.1446371078491	-0.102005
37.1602671146393	1.706314
37.1758971214294	3.563675
37.1915171146393	5.24588
37.2071471214294	6.650452
37.2227671146393	7.758667
37.2383971214294	8.55574
37.2540171146393	8.998062
37.2696471214294	9.024063
37.2852771282196	8.63208
37.3008971214294	7.898331
37.3165271282196	6.988388
37.3321471214294	6.097443
37.3477771282196	5.383591
37.3633971214294	4.923279
37.3790271282196	4.681473
37.3946568965912	4.571152
37.4102771282196	4.477509
37.4259068965912	4.331451
37.4415271282196	4.115234
37.4571568965912	3.872284
37.4727771282196	3.655655
37.4884068965912	3.487823
37.5040369033813	3.328232
37.5196568965912	3.06218
37.5352869033813	2.590698
37.5509068965912	1.873367
37.5665369033813	0.9933624
37.5821568965912	0.114151
37.5977869033813	-0.5917358
37.6134169101715	-1.04155
37.6290369033813	-1.294891
37.6446669101715	-1.508713
37.6602869033813	-1.852173
37.6759169101715	-2.378174
37.6915369033813	-3.011108
37.7071669101715	-3.576096
37.7227969169617	-3.898331
37.7384169101715	-3.872162
37.7540469169617	-3.492996
37.7696669101715	-2.825684
37.7852969169617	-1.952362
37.8009169101715	-0.9332123
37.8165469169617	0.1960144
37.8321769237518	1.393188
37.8477969169617	2.583588
37.8634269237518	3.652649
37.8790469169617	4.469559
37.8946769237518	4.938843
37.9102969169617	5.025146
37.9259269237518	4.802444
37.941556930542	4.405075
37.9571769237518	3.987122
37.972806930542	3.660919
37.9884269237518	3.470764
38.004056930542	3.397308
38.0196769237518	3.389328
38.035306930542	3.412369
38.0509369373322	3.44339
38.066556930542	3.489685
38.0821869373322	3.543198
38.097806930542	3.555634
38.1134369373322	3.46875
38.129056930542	3.232193
38.1446869373322	2.846954
38.1603169441223	2.354233
38.1759369373322	1.831741
38.1915669441223	1.319763
38.2071869373322	0.8098755
38.2228169441223	0.2514954
38.2384369373322	-0.4060364
38.2540669441223	-1.143646
38.2696969509125	-1.885025
38.2853169441223	-2.524033
38.3009469509125	-2.967178
38.3165669441223	-3.175018
38.3321969509125	-3.192734
38.3478169441223	-3.114532
38.3634469509125	-3.048538
38.3790769577026	-3.092773
38.3946969509125	-3.264114
38.4103269577026	-3.50824
38.4259469509125	-3.692719
38.4415769577026	-3.670547
38.4571969509125	-3.299713
38.4728269577026	-2.532227
38.4884569644928	-1.399323
38.5040769577026	-0.02841187
38.5197069644928	1.40448
38.5353269577026	2.728989
38.5509569644928	3.814606
38.566586971283	4.612152
38.5822069644928	5.123108
38.597836971283	5.393906
38.6134569644928	5.462448
38.629086971283	5.353195
38.6447069644928	5.081696
38.660336971283	4.649063
38.6759669780731	4.084579
38.691586971283	3.443817
38.7072169780731	2.810104
38.722836971283	2.274918
38.7384669780731	1.895493
38.754086971283	1.674484
38.7697169780731	1.552185
38.7853469848633	1.440598
38.8009669780731	1.262222
38.8165969848633	1.001724
38.8322169780731	0.70784
38.8478469848633	0.4758148
38.8634669780731	0.4068909
38.8790969848633	0.538208
38.8947269916534	0.8114014
38.9103469848633	1.080627
38.9259769916534	1.168823
38.9415969848633	0.9334259
38.9572269916534	0.369751
38.9728469848633	-0.4057617
38.9884769916534	-1.180969
39.0041069984436	-1.761002
39.0197269916534	-2.050964
39.0353569984436	-2.104294
39.0509769916534	-2.064026
39.0666069984436	-2.094116
39.0822269916534	-2.289154
39.0978569984436	-2.633316
39.1134870052338	-3.032959
39.1291069984436	-3.372299
39.1447370052338	-3.549789
39.1603569984436	-3.493988
39.1759870052338	-3.152771
39.1916069984436	-2.485062
39.2072370052338	-1.491302
39.2228670120239	-0.2467499
39.2384870052338	1.09584
39.2541170120239	2.33548
39.2697370052338	3.291733
39.2853670120239	3.879745
39.3009870052338	4.132843
39.3166170120239	4.161972
39.3322470188141	4.07695
39.3478670120239	3.906448
39.3634970188141	3.60199
39.3791170120239	3.096634
39.3947470188141	2.400879
39.4103670120239	1.627457
39.4259970188141	0.9720764
39.4416270256042	0.6119537
39.4572470188141	0.6085968
39.4728770256042	0.88414
39.4884970188141	1.234528
39.5041270256042	1.457825
39.5197470188141	1.434418
39.5353770256042	1.171967
39.5510070323944	0.7866974
39.5666270256042	0.4264221
39.5822570323944	0.2034912
39.5978770256042	0.1378632
39.6135070323944	0.1907349
39.6291270256042	0.2880859
39.6447570323944	0.3581848
39.6603870391846	0.3567963
39.6760070323944	0.2771759
39.6916370391846	0.1412201
39.7072570323944	-0.00227356
39.7228870391846	-0.1030426
39.7385070323944	-0.1417999
39.7541370391846	-0.1529846
39.7697670459747	-0.2140656
39.7853870391846	-0.4291077
39.8010170459747	-0.8674927
39.8166370391846	-1.500732
39.8322670459747	-2.203796
39.8478870391846	-2.798981
39.8635170459747	-3.117249
39.8791470527649	-3.096573
39.8947670459747	-2.773148
39.9103970527649	-2.239975
39.9260170459747	-1.572891
39.9416470527649	-0.7981415
39.9572670459747	0.08230591
39.9728970527649	1.047653
39.9885270595551	1.985229
40.0041470527649	2.745148
40.0197770595551	3.182999
40.0353970527649	3.26796
40.0510270595551	3.082748
40.0666470527649	2.788376
40.0822770595551	2.533295
40.0979070663452	2.356033
40.1135270595551	2.194824
40.1291570663452	1.939301
40.1447770595551	1.542618
40.1604070663452	1.051712
40.1760270595551	0.6044464
40.1916570663452	0.3441162
40.2072870731354	0.3148041
40.2229070663452	0.4427032
40.2385370731354	0.5790558
40.2541570663452	0.5859833
40.2697870731354	0.4179077
40.2854070663452	0.1248779
40.3010370731354	-0.1710663
40.3166670799255	-0.3351898
40.3322870731354	-0.2776337
40.3479170799255	-0.005157471
40.3635370731354	0.3901367
40.3791670799255	0.7469635
40.3947870731354	0.9001617
40.4104170799255	0.7589264
40.4260470867157	0.3360748
40.4416670799255	-0.2518616
40.4572970867157	-0.8376007
40.4729170799255	-1.266983
40.4885470867157	-1.479065
40.5041670799255	-1.509048
40.5197970867157	-1.463318
40.5354270935059	-1.434387
40.5510470867157	-1.475815
40.5666770935059	-1.61116
40.5822970867157	-1.837326
40.5979270935059	-2.163742
40.6135470867157	-2.587799
40.6291770935059	-3.050659
40.644807100296	-3.42601
40.6604270935059	-3.554459
40.676057100296	-3.294312
40.6916770935059	-2.591431
40.707307100296	-1.522766
40.7229270935059	-0.2417297
40.738557100296	1.035851
40.7541871070862	2.126823
40.769807100296	2.901955
40.7854371070862	3.311203
40.801057100296	3.364571
40.8166871070862	3.116829
40.8323171138763	2.648506
40.8479371070862	2.043961
40.8635671138763	1.419044
40.8791871070862	0.8874207
40.8948171138763	0.55336
40.9104371070862	0.4714661
40.9260671138763	0.6053314
40.9416971206665	0.8143234
40.9573171138763	0.9265442
40.9729471206665	0.8059845
40.9885671138763	0.4247818
41.0041971206665	-0.1035538
41.0198171138763	-0.6273041
41.0354471206665	-1.005341
41.0510771274567	-1.182159
41.0666971206665	-1.196274
41.0823271274567	-1.12291
41.0979471206665	-1.043732
41.1135771274567	-1.007637
41.1291971206665	-1.023743
41.1448271274567	-1.07737
41.1604568958282	-1.174072
41.1760771274567	-1.301735
41.1917068958282	-1.451759
41.2073271274567	-1.614044
41.2229568958282	-1.770271
41.2385771274567	-1.937668
41.2542068958282	-2.135071
41.2698369026184	-2.383461
41.2854568958282	-2.651657
41.3010869026184	-2.884918
41.3167068958282	-3.004074
41.3323369026184	-2.972908
41.3479568958282	-2.819817
41.3635869026184	-2.613716
41.3792169094086	-2.448517
41.3948369026184	-2.372963
41.4104669094086	-2.374924
41.4260869026184	-2.366791
41.4417169094086	-2.253342
41.4573369026184	-1.942154
41.4729669094086	-1.420822
41.4885969161987	-0.7458878
41.5042169094086	-0.005493164
41.5198469161987	0.7001648
41.5354669094086	1.300812
41.5510969161987	1.748184
41.5667169094086	2.01857
41.5823469161987	2.098198
41.5979769229889	1.99791
41.6135969161987	1.741234
41.6292269229889	1.386536
41.6448469161987	1.03904
41.6604769229889	0.8009872
41.6760969161987	0.7732544
41.6917269229889	0.9896851
41.7073569297791	1.406151
41.7229769229889	1.907265
41.7386069297791	2.361153
41.7542269229889	2.660446
41.7698569297791	2.750626
41.7854769229889	2.668823
41.8011069297791	2.476753
41.8167369365692	2.241112
41.8323569297791	1.998055
41.8479869365692	1.749382
41.8636069297791	1.486748
41.8792369365692	1.223381
41.8948569297791	0.9884262
41.9104869365692	0.7907639
41.9261169433594	0.6224823
41.9417369365692	0.4380264
41.9573669433594	0.190712
41.9729869365692	-0.1326675
41.9886169433594	-0.5120239
42.0042369365692	-0.9190292
42.0198669433594	-1.326744
42.0354969501495	-1.737923
42.0511169433594	-2.168365
42.0667469501495	-2.616493
42.0823669433594	-3.058838
42.0979969501495	-3.429039
42.1136169433594	-3.644806
42.1292469501495	-3.647675
42.1448769569397	-3.447823
42.1604969501495	-3.122162
42.1761269569397	-2.799561
42.1917469501495	-2.586334
42.2073769569397	-2.538078
42.2229969501495	-2.618752
42.2386269569397	-2.738731
42.2542569637299	-2.779602
42.2698769569397	-2.647942
42.2855069637299	-2.275032
42.3011269569397	-1.65052
42.3167569637299	-0.8132019
42.3323769569397	0.1595459
42.3480069637299	1.141922
42.36363697052	1.990692
42.3792569637299	2.578819
42.39488697052	2.844635
42.4105069637299	2.806328
42.42613697052	2.549362
42.4417569637299	2.177322
42.45738697052	1.768753
42.4730169773102	1.374756
42.48863697052	1.020561
42.5042669773102	0.7351913
42.51988697052	0.5455856
42.5355169773102	0.4684448
42.55113697052	0.4732513
42.5667669773102	0.5149155
42.5823969841003	0.545784
42.5980169773102	0.5556564
42.6136469841003	0.5627594
42.6292669773102	0.5825958
42.6448969841003	0.5908356
42.6605169773102	0.5386505
42.6761469841003	0.3909073
42.6917769908905	0.1677628
42.7073969841003	-0.05165863
42.7230269908905	-0.1782303
42.7386469841003	-0.1827469
42.7542769908905	-0.1255264
42.7698969841003	-0.1022949
42.7855269908905	-0.1603165
42.8011569976807	-0.2804642
42.8167769908905	-0.3745193
42.8324069976807	-0.3724136
42.8480269908905	-0.2985001
42.8636569976807	-0.2609406
42.8792769908905	-0.3863068
42.8949069976807	-0.7304382
42.9105370044708	-1.226982
42.9261569976807	-1.720406
42.9417870044708	-2.076836
42.9574069976807	-2.255943
42.9730370044708	-2.331375
42.9886569976807	-2.435181
43.0042870044708	-2.65345
43.019917011261	-2.958992
43.0355370044708	-3.212929
43.051167011261	-3.246704
43.0667870044708	-2.939003
43.082417011261	-2.297417
43.0980470180511	-1.446655
43.113667011261	-0.575737
43.1292970180511	0.1449966
43.144917011261	0.6276627
43.1605470180511	0.8767014
43.176167011261	0.9760284
43.1917970180511	0.992836
43.2074270248413	0.970993
43.2230470180511	0.9027023
43.2386770248413	0.7718811
43.2542970180511	0.5854416
43.2699270248413	0.3909302
43.2855470180511	0.2616348
43.3011770248413	0.2421722
43.3168070316315	0.3441238
43.3324270248413	0.5178833
43.3480570316315	0.7062454
43.3636770248413	0.8573761
43.3793070316315	0.9569473
43.3949270248413	1.001526
43.4105570316315	0.9945374
43.4261870384216	0.9325867
43.4418070316315	0.8185577
43.4574370384216	0.6896362
43.4730570316315	0.5869675
43.4886870384216	0.5586853
43.5043070316315	0.606575
43.5199370384216	0.6970596
43.5355670452118	0.7600784
43.5511870384216	0.7152405
43.5668170452118	0.509201
43.5824370384216	0.1294785
43.5980670452118	-0.3848495
43.6136870384216	-0.9630356
43.6293170452118	-1.49781
43.644947052002	-1.883202
43.6605670452118	-2.043808
43.676197052002	-1.964294
43.6918170452118	-1.731728
43.707447052002	-1.485924
43.7230670452118	-1.37674
43.738697052002	-1.485191
43.7543270587921	-1.791016
43.769947052002	-2.171906
43.7855770587921	-2.491989
43.801197052002	-2.66766
43.8168270587921	-2.701435
43.832447052002	-2.659595
43.8480770587921	-2.594627
43.8637070655823	-2.494968
43.8793270587921	-2.276249
43.8949570655823	-1.848885
43.9105770587921	-1.169975
43.9262070655823	-0.304203
43.9418270587921	0.6027298
43.9574570655823	1.399097
43.9730870723724	1.986835
43.9887070655823	2.369324
44.0043370723724	2.609451
44.0199570655823	2.793518
44.0355870723724	2.953445
44.0512070655823	3.077732
44.0668370723724	3.116642
44.0824670791626	3.029057
44.0980870723724	2.820702
44.1137170791626	2.540741
44.1293370723724	2.26479
44.1449670791626	2.050175
44.1605870723724	1.922131
44.1762170791626	1.861305
44.1918470859528	1.818211
44.2074670791626	1.7337
44.2230970859528	1.572552
44.2387170791626	1.322918
44.2543470859528	1.003082
44.2699670791626	0.6599541
44.2855970859528	0.3390236
44.3012270927429	0.0762291
44.3168470859528	-0.1090775
44.3324770927429	-0.2312927
44.3480970859528	-0.3203201
44.3637270927429	-0.3917122
44.3793470859528	-0.4586754
44.3949770927429	-0.5311203
44.4106070995331	-0.6130562
44.4262270927429	-0.7252045
44.4418570995331	-0.8916855
44.4574770927429	-1.114815
44.4731070995331	-1.376507
44.4887270927429	-1.630108
44.5043570995331	-1.824165
44.5199871063232	-1.925934
44.5356070995331	-1.953362
44.5512371063232	-1.950928
44.5668570995331	-1.966618
44.5824871063232	-2.015083
44.5981070995331	-2.066376
44.6137371063232	-2.060719
44.6293671131134	-1.968388
44.6449871063232	-1.814213
44.6606171131134	-1.684753
44.6762371063232	-1.664944
44.6918671131134	-1.810997
44.7074871063232	-2.127754
44.7231171131134	-2.562561
44.7387471199036	-3.066978
44.7543671131134	-3.577728
44.7699971199036	-4.023045
44.7856171131134	-4.30555
44.8012471199036	-4.303799
44.8168671131134	-3.890659
44.8324971199036	-3.011578
44.8481271266937	-1.728218
44.8637471199036	-0.2231674
44.8793771266937	1.233307
44.8949971199036	2.37344
44.9106271266937	3.022713
44.9262471199036	3.156212
44.9418771266937	2.897354
44.9575068950653	2.438244
44.9731271266937	1.971584
44.9887568950653	1.606159
45.0043771266937	1.35265
45.0200068950653	1.160858
45.0356271266937	0.9727135
45.0512568950653	0.7779388
45.0668869018555	0.6085892
45.0825068950653	0.5274773
45.0981369018555	0.5556564
45.1137568950653	0.6657257
45.1293869018555	0.7793121
45.1450068950653	0.8368187
45.1606369018555	0.7945786
45.1762669086456	0.6802597
45.1918869018555	0.5457382
45.2075169086456	0.4397469
45.2231369018555	0.3934784
45.2387669086456	0.4059143
45.2543869018555	0.4685097
45.2700169086456	0.5626259
45.2856469154358	0.6726418
45.3012669086456	0.767868
45.3168969154358	0.8239708
45.3325169086456	0.809536
45.3481469154358	0.6995506
45.3637669086456	0.4837875
45.3793969154358	0.1581383
45.395026922226	-0.2376213
45.4106469154358	-0.6333046
45.426276922226	-0.9264412
45.4418969154358	-1.023159
45.457526922226	-0.9011955
45.4731469154358	-0.6213112
45.488776922226	-0.3266563
45.5044069290161	-0.1657867
45.520026922226	-0.2272835
45.5356569290161	-0.4960365
45.551276922226	-0.8768425
45.5669069290161	-1.240967
45.582526922226	-1.499725
45.5981569290161	-1.638073
45.6137869358063	-1.689682
45.6294069290161	-1.729599
45.6450369358063	-1.807121
45.6606569290161	-1.947712
45.6762869358063	-2.137985
45.6919169425964	-2.350628
45.7075369358063	-2.535152
45.7231669425964	-2.634304
45.7387869358063	-2.576813
45.7544169425964	-2.295135
45.7700369358063	-1.752186
45.7856669425964	-0.9571609
45.8012969493866	0.006767273
45.8169169425964	0.9946289
45.8325469493866	1.846706
45.8481669425964	2.442806
45.8637969493866	2.751274
45.8794169425964	2.824741
45.8950469493866	2.763783
45.9106769561768	2.636776
45.9262969493866	2.456306
45.9419269561768	2.178925
45.9575469493866	1.762924
45.9731769561768	1.21719
45.9887969493866	0.626873
46.0044269561768	0.1181831
46.0200569629669	-0.1985588
46.0356769561768	-0.2570229
46.0513069629669	-0.06810379
46.0669269561768	0.3101501
46.0825569629669	0.776722
46.0981769561768	1.223564
46.1138069629669	1.535637
46.1294369697571	1.633972
46.1450569629669	1.493893
46.1606869697571	1.146088
46.1763069629669	0.6831779
46.1919369697571	0.1965942
46.2075569629669	-0.2440529
46.2231869697571	-0.632
46.2388169765472	-0.9798126
46.2544369697571	-1.301781
46.2700669765472	-1.562462
46.2856869697571	-1.694664
46.3013169765472	-1.658617
46.3169369697571	-1.471529
46.3325669765472	-1.229889
46.3481969833374	-1.072168
46.3638169765472	-1.110909
46.3794469833374	-1.369345
46.3950669765472	-1.777716
46.4106969833374	-2.20261
46.4263169765472	-2.514927
46.4419469833374	-2.662914
46.4575769901276	-2.664848
46.4731969833374	-2.612555
46.4888269901276	-2.590614
46.5044469833374	-2.635057
46.5200769901276	-2.730633
46.5356969833374	-2.819212
46.5513269901276	-2.843391
46.5669569969177	-2.789961
46.5825769901276	-2.691763
46.5982069969177	-2.591131
46.6138269901276	-2.524233
46.6294569969177	-2.501482
46.6450769901276	-2.475334
46.6607069969177	-2.395464
46.6763370037079	-2.211525
46.6919569969177	-1.905142
46.7075870037079	-1.493206
46.7232069969177	-1.009892
46.7388370037079	-0.4871464
46.7544569969177	0.06426811
46.7700870037079	0.6268616
46.785717010498	1.198639
46.8013370037079	1.739098
46.816967010498	2.180952
46.8325870037079	2.453825
46.848217010498	2.512459
46.8638370037079	2.355902
46.879467010498	2.055328
46.8950970172882	1.712408
46.910717010498	1.424831
46.9263470172882	1.250359
46.941967010498	1.180958
46.9575970172882	1.182283
46.973217010498	1.20837
46.9888470172882	1.246008
47.0044770240784	1.288391
47.0200970172882	1.345951
47.0357270240784	1.406506
47.0513470172882	1.441895
47.0669770240784	1.412319
47.0825970172882	1.310869
47.0982270240784	1.171787
47.1138570308685	1.072042
47.1294770240784	1.07881
47.1451070308685	1.193903
47.1607270240784	1.327175
47.1763570308685	1.3512
47.1919770240784	1.152416
47.2076070308685	0.7274055
47.2232370376587	0.1908779
47.2388570308685	-0.2686577
47.2544870376587	-0.4932137
47.2701070308685	-0.4524899
47.2857370376587	-0.248621
47.3013570308685	-0.04705048
47.3169870376587	0.03053856
47.3326170444489	-0.02705956
47.3482370376587	-0.1311378
47.3638670444489	-0.1591759
47.3794870376587	-0.05283928
47.3951170444489	0.1492271
47.4107370376587	0.3340645
47.4263670444489	0.3911037
47.441997051239	0.2826271
47.4576170444489	0.06846428
47.473247051239	-0.1507587
47.4888670444489	-0.263588
47.504497051239	-0.2436562
47.5201170444489	-0.1428432
47.535747051239	-0.06852722
47.5513770580292	-0.1037617
47.566997051239	-0.2810535
47.5826270580292	-0.5473557
47.598247051239	-0.8050632
47.6138770580292	-0.966135
47.629497051239	-0.9722233
47.6451270580292	-0.8155861
47.6607570648193	-0.5430546
47.6763770580292	-0.2125759
47.6920070648193	0.1231327
47.7076270580292	0.448143
47.7232570648193	0.7457619
47.7388770580292	1.037741
47.7545070648193	1.325333
47.7701370716095	1.606302
47.7857570648193	1.851458
47.8013870716095	2.001978
47.8170070648193	2.011293
47.8326370716095	1.856825
47.8482670783997	1.571404
47.8638870716095	1.225407
47.8795170783997	0.9127712
47.8951370716095	0.7000294
47.9107670783997	0.6126328
47.9263870716095	0.6440659
47.9420170783997	0.7468529
47.9576470851898	0.884613
47.9732670783997	1.010677
47.9888970851898	1.089514
48.0045170783997	1.093576
48.0201470851898	1.017233
48.0357670783997	0.8758907
48.0513970851898	0.698
48.06702709198	0.531662
48.0826470851898	0.40835
48.09827709198	0.3461094
48.1138970851898	0.3338032
48.12952709198	0.3486576
48.1451470851898	0.3459053
48.16077709198	0.2832603
48.1764070987701	0.1337433
48.19202709198	-0.1050434
48.2076570987701	-0.3914337
48.22327709198	-0.6737156
48.2389070987701	-0.8943386
48.25452709198	-1.0406
48.2701570987701	-1.125164
48.2857871055603	-1.187016
48.3014070987701	-1.253681
48.3170371055603	-1.327591
48.3326570987701	-1.40217
48.3482871055603	-1.465885
48.3639070987701	-1.535286
48.3795371055603	-1.628822
48.3951671123505	-1.772095
48.4107871055603	-1.961599
48.4264171123505	-2.170147
48.4420371055603	-2.367092
48.4576671123505	-2.514462
48.4732871055603	-2.585699
48.4889171123505	-2.572546
48.5045471191406	-2.464573
48.5201671123505	-2.242203
48.5357971191406	-1.892138
48.5514171123505	-1.403391
48.5670471191406	-0.785881
48.5826671123505	-0.08080292
48.5982971191406	0.6437473
48.6139271259308	1.304838
48.6295471191406	1.817663
48.6451771259308	2.132561
48.6607971191406	2.247211
48.6764271259308	2.203463
48.6920471191406	2.076544
48.7076771259308	1.926653
48.7233068943024	1.765094
48.7389271259308	1.575994
48.7545568943024	1.335297
48.7701771259308	1.036912
48.7858068943024	0.7202902
48.8014271259308	0.4526644
48.8170568943024	0.2856007
48.8326869010925	0.2326612
48.8483068943024	0.2616205
48.8639369010925	0.3129816
48.8795568943024	0.3401546
48.8951869010925	0.3168612
48.9108068943024	0.2566175
48.9264369010925	0.203229
48.9420669078827	0.1893425
48.9576869010925	0.2348452
48.9733169078827	0.3490534
48.9889369010925	0.5267582
49.0045669078827	0.7285366
49.0201869010925	0.8891983
49.0358169078827	0.9072332
49.0514469146729	0.7148991
49.0670669078827	0.3247833
49.0826969146729	-0.1668434
49.0983169078827	-0.6032419
49.1139469146729	-0.8549728
49.1295669078827	-0.8879604
49.1451969146729	-0.776619
49.160826921463	-0.6584759
49.1764469146729	-0.6704512
49.192076921463	-0.8531761
49.2076969146729	-1.145577
49.223326921463	-1.44867
49.2389469146729	-1.681265
49.254576921463	-1.823003
49.2702069282532	-1.913511
49.285826921463	-1.994597
49.3014569282532	-2.076505
49.317076921463	-2.123876
49.3327069282532	-2.10592
49.348326921463	-2.018616
49.3639569282532	-1.921751
49.3795869350433	-1.88877
49.3952069282532	-1.962804
49.4108369350433	-2.123199
49.4264569282532	-2.265596
49.4420869350433	-2.266212
49.4577069282532	-2.024255
49.4733369350433	-1.507137
49.4889669418335	-0.7503204
49.5045869350433	0.1632023
49.5202169418335	1.143908
49.5358369350433	2.10554
49.5514669418335	2.952333
49.5670869350433	3.597427
49.5827169418335	3.960345
49.5983469486237	4.022272
49.6139669418335	3.842493
49.6295969486237	3.547714
49.6452169418335	3.265269
49.6608469486237	3.08233
49.6764669418335	2.996301
49.6920969486237	2.951988
49.7077269554138	2.903396
49.7233469486237	2.849577
49.7389769554138	2.827792
49.7545969486237	2.865099
49.7702269554138	2.923855
49.7858469486237	2.906327
49.8014769554138	2.707378
49.817106962204	2.28883
49.8327269554138	1.70996
49.848356962204	1.121561
49.8639769554138	0.6817355
49.879606962204	0.4828036
49.8952269554138	0.4837806
49.910856962204	0.5410371
49.9264869689941	0.4937234
49.942106962204	0.2477002
49.9577369689941	-0.1672287
49.973356962204	-0.6434245
49.9889869689941	-1.049751
50.004606962204	-1.322765
50.0202369689941	-1.485492
50.0358669757843	-1.610505
50.0514869689941	-1.763309
50.0671169757843	-1.934073
50.0827369689941	-2.054236
50.0983669757843	-2.046471
50.1139869689941	-1.887001
50.1296169757843	-1.625942
50.1452469825745	-1.372445
50.1608669757843	-1.215763
50.1764969825745	-1.168389
50.1921169757843	-1.184052
50.2077469825745	-1.196121
50.2233669757843	-1.170287
50.2389969825745	-1.141885
50.2546269893646	-1.19373
50.2702469825745	-1.388829
50.2858769893646	-1.730587
50.3014969825745	-2.145565
50.3171269893646	-2.521232
50.3327469825745	-2.779941
50.3483769893646	-2.905973
50.3640069961548	-2.961468
50.3796269893646	-3.031432
50.3952569961548	-3.187421
50.4108769893646	-3.415224
50.4265069961548	-3.641591
50.4421269893646	-3.775832
50.4577569961548	-3.747937
50.4733870029449	-3.559727
50.4890069961548	-3.253095
50.5046370029449	-2.875005
50.5202569961548	-2.447055
50.5358870029449	-1.952595
50.5515170097351	-1.378781
50.5671370029449	-0.7501888
50.5827670097351	-0.1513381
50.5983870029449	0.3177729
50.6140170097351	0.5783401
50.6296370029449	0.6533337
50.6452670097351	0.6384301
50.6608970165253	0.6618614
50.6765170097351	0.8124108
50.6921470165253	1.072859
50.7077670097351	1.346914
50.7233970165253	1.523041
50.7390170097351	1.546877
50.7546470165253	1.426536
50.7702770233154	1.223743
50.7858970165253	0.9913116
50.8015270233154	0.7396979
50.8171470165253	0.4666104
50.8327770233154	0.1752167
50.8483970165253	-0.08322811
50.8640270233154	-0.2380424
50.8796570301056	-0.214838
50.8952770233154	-0.01450825
50.9109070301056	0.322732
50.9265270233154	0.7032619
50.9421570301056	1.048906
50.9577770233154	1.300777
50.9734070301056	1.429142
50.9890370368958	1.410106
51.0046570301056	1.237763
51.0202870368958	0.9350801
51.0359070301056	0.5609508
51.0515370368958	0.2246757
51.0671570301056	0.02238941
51.0827870368958	0.001097679
51.0984170436859	0.1241612
51.1140370368958	0.2781591
51.1296670436859	0.3388739
51.1452870368958	0.2286677
51.1609170436859	-0.0252037
51.1765370368958	-0.3244696
51.1921670436859	-0.5556779
51.2077970504761	-0.6621251
51.2234170436859	-0.6606169
51.2390470504761	-0.6328292
51.2546670436859	-0.6675744
51.2702970504761	-0.7864585
51.2859170436859	-0.9429979
51.3015470504761	-1.050202
51.3171770572662	-1.044117
51.3327970504761	-0.9363866
51.3484270572662	-0.8001552
51.3640470504761	-0.746243
51.3796770572662	-0.8484588
51.3952970504761	-1.132432
51.4109270572662	-1.54395
51.4265570640564	-1.996896
51.4421770572662	-2.414392
51.4578070640564	-2.727739
51.4734270572662	-2.891451
51.4890570640564	-2.874163
51.5046770572662	-2.655741
51.5203070640564	-2.215363
51.5359370708466	-1.557464
51.5515570640564	-0.7133331
51.5671870708466	0.2333088
51.5828070640564	1.154215
51.5984370708466	1.92327
51.6140570640564	2.446383
51.6296870708466	2.706763
51.6453170776367	2.753994
51.6609370708466	2.679411
51.6765670776367	2.552244
51.6921870708466	2.389616
51.7078170776367	2.152974
51.7234370708466	1.793027
51.7390670776367	1.324946
51.7546970844269	0.8131752
51.7703170776367	0.3828435
51.7859470844269	0.1363792
51.8015670776367	0.1135201
51.8171970844269	0.26296
51.8328170776367	0.4749203
51.8484470844269	0.6417837
51.864077091217	0.7060804
51.8796970844269	0.6972656
51.895327091217	0.6642013
51.9109470844269	0.6592693
51.926577091217	0.6783581
51.9421970844269	0.6781578
51.957827091217	0.6154809
51.9734570980072	0.4820514
51.989077091217	0.3243871
52.0047070980072	0.2188711
52.020327091217	0.2187452
52.0359570980072	0.317874
52.051577091217	0.4535584
52.0672070980072	0.5326257
52.0828371047974	0.4911952
52.0984570980072	0.3282423
52.1140871047974	0.08564425
52.1297070980072	-0.1655192
52.1453371047974	-0.3640571
52.1609570980072	-0.4765029
52.1765871047974	-0.499001
52.1922171115875	-0.4334826
52.2078371047974	-0.3040237
52.2234671115875	-0.1562548
52.2390871047974	-0.04359436
52.2547171115875	-0.0334444
52.2703371047974	-0.1629186
52.2859671115875	-0.4271269
52.3015971183777	-0.7868729
52.3172171115875	-1.185419
52.3328471183777	-1.566195
52.3484671115875	-1.902013
52.3640971183777	-2.186614
52.3797171115875	-2.406568
52.3953471183777	-2.550344
52.4109771251678	-2.573164
52.4265971183777	-2.469752
52.4422271251678	-2.266088
52.4578471183777	-2.046957
52.4734771251678	-1.913284
52.4890971183777	-1.955896
52.5047271251678	-2.191284
52.5203568935394	-2.546149
52.5359771251678	-2.88405
52.5516068935394	-3.039331
52.5672271251678	-2.912995
52.5828568935394	-2.497141
52.5984771251678	-1.864699
52.6141068935394	-1.143909
52.6297369003296	-0.4548655
52.6453568935394	0.1243196
52.6609869003296	0.577137
52.6766068935394	0.9283261
52.6922369003296	1.208099
52.7078669071198	1.441926
52.7234869003296	1.638813
52.7391169071198	1.784869
52.7547369003296	1.862367
52.7703669071198	1.867573
52.7859869003296	1.804855
52.8016169071198	1.693735
52.8172469139099	1.545245
52.8328669071198	1.373002
52.8484969139099	1.192453
52.8641169071198	1.029851
52.8797469139099	0.9047589
52.8953669071198	0.836535
52.9109969139099	0.8212991
52.9266269207001	0.8302732
52.9422469139099	0.8204155
52.9578769207001	0.7617931
52.9734969139099	0.6734018
52.9891269207001	0.6027498
53.0047469139099	0.6001496
53.0203769207001	0.6697545
53.0360069274902	0.770463
53.0516269207001	0.8295183
53.0672569274902	0.7921438
53.0828769207001	0.6626844
53.0985069274902	0.5120535
53.1141269207001	0.4033017
53.1297569274902	0.3646245
53.1453869342804	0.35814
53.1610069274902	0.3149686
53.1766369342804	0.2054329
53.1922569274902	0.04232407
53.2078869342804	-0.1065269
53.2235069274902	-0.1763825
53.2391369342804	-0.1414409
53.2547669410706	-0.03218126
53.2703869342804	0.1022124
53.2860169410706	0.2259865
53.3016369342804	0.3147411
53.3172669410706	0.3616881
53.3328869342804	0.3399754
53.3485169410706	0.2196603
53.3641469478607	-0.004692554
53.3797669410706	-0.2986259
53.3953969478607	-0.5858817
53.4110169410706	-0.7898216
53.4266469478607	-0.8691807
53.4422669410706	-0.8665481
53.4578969478607	-0.8705573
53.4735269546509	-0.9651566
53.4891469478607	-1.189373
53.5047769546509	-1.503191
53.5203969478607	-1.816675
53.5360269546509	-2.031084
53.5516469478607	-2.087744
53.5672769546509	-2.000559
53.582906961441	-1.836281
53.5985269546509	-1.64682
53.614156961441	-1.451036
53.6297769546509	-1.201735
53.645406961441	-0.8356643
53.6610269546509	-0.3220487
53.676656961441	0.2955012
53.6922869682312	0.9160848
53.707906961441	1.420703
53.7235369682312	1.734367
53.739156961441	1.863926
53.7547869682312	1.873721
53.770406961441	1.836538
53.7860369682312	1.802186
53.8016669750214	1.757169
53.8172869682312	1.664606
53.8329169750214	1.490664
53.8485369682312	1.241168
53.8641669750214	0.9665945
53.8797869682312	0.7292476
53.8954169750214	0.5955374
53.9110469818115	0.584183
53.9266669750214	0.6847417
53.9422969818115	0.8388205
53.9579169750214	0.9765859
53.9735469818115	1.044676
53.9891669750214	1.024069
54.0047969818115	0.9359331
54.0204269886017	0.8264389
54.0360469818115	0.731427
54.0516769886017	0.6497297
54.0672969818115	0.5408711
54.0829269886017	0.3463111
54.0985469818115	0.04843163
54.1141769886017	-0.3186455
54.1298069953918	-0.6769233
54.1454269886017	-0.9365287
54.1610569953918	-1.046077
54.1766769886017	-1.006898
54.1923069953918	-0.8647037
54.2079269886017	-0.6992004
54.2235569953918	-0.5908291
54.239187002182	-0.5825112
54.2548069953918	-0.6799407
54.270437002182	-0.8484635
54.2860569953918	-1.029711
54.301687002182	-1.187889
54.3173069953918	-1.304589
54.332937002182	-1.386155
54.3485670089722	-1.452158
54.364187002182	-1.50466
54.3798170089722	-1.534515
54.395437002182	-1.507423
54.4110670089722	-1.420128
54.426687002182	-1.282215
54.4423170089722	-1.131914
54.4579470157623	-1.019583
54.4735670089722	-0.9787691
54.4891970157623	-1.005407
54.5048170089722	-1.073427
54.5204470157623	-1.156442
54.5360670089722	-1.229085
54.5516970157623	-1.280498
54.5673270225525	-1.298305
54.5829470157623	-1.256911
54.5985770225525	-1.129713
54.6141970157623	-0.8916152
54.6298270225525	-0.5442419
54.6454470157623	-0.1049109
54.6610770225525	0.3789008
54.6767070293427	0.8453534
54.6923270225525	1.225241
54.7079570293427	1.477067
54.7235770225525	1.580905
54.7392070293427	1.569515
54.7548270225525	1.503733
54.7704570293427	1.461315
54.7860870361328	1.484367
54.8017070293427	1.553853
54.8173370361328	1.600331
54.8329570293427	1.568986
54.8485870361328	1.444078
54.8642070293427	1.282405
54.8798370361328	1.173674
54.895467042923	1.199536
54.9110870361328	1.375248
54.926717042923	1.640172
54.9423370361328	1.889837
54.957967042923	2.024013
54.9735970497131	1.984736
54.989217042923	1.766158
55.0048470497131	1.401424
55.020467042923	0.9502488
55.0360970497131	0.4910048
55.051717042923	0.1212022
55.0673470497131	-0.08659899
55.0829770565033	-0.08659101
55.0985970497131	0.0982914
55.1142270565033	0.3780571
55.1298470497131	0.6435928
55.1454770565033	0.8228185
55.1610970497131	0.9025623
55.1767270565033	0.9160296
55.1923570632935	0.8855983
55.2079770565033	0.7895867
55.2236070632935	0.5846682
55.2392270565033	0.2659481
55.2548570632935	-0.1086874
55.2704770565033	-0.4204574
55.2861070632935	-0.545329
55.3017370700836	-0.4377706
55.3173570632935	-0.1505122
55.3329870700836	0.2061282
55.3486070632935	0.5102545
55.3642370700836	0.7106956
55.3798570632935	0.7970042
55.3954870700836	0.7847309
55.4111170768738	0.6753176
55.4267370700836	0.4506391
55.4423670768738	0.1048237
55.4579870700836	-0.3242732
55.4736170768738	-0.735365
55.4892370700836	-1.037951
55.5048670768738	-1.186967
55.5204970836639	-1.223124
55.5361170768738	-1.241227
55.5517470836639	-1.328322
55.5673670768738	-1.515341
55.5829970836639	-1.760195
55.5986170768738	-1.973163
55.6142470836639	-2.071833
55.6298770904541	-1.995734
55.6454970836639	-1.718412
55.6611270904541	-1.239691
55.6767470836639	-0.5873709
55.6923770904541	0.1874492
55.7079970836639	0.9986575
55.7236270904541	1.723037
55.7392570972443	2.237138
55.7548770904541	2.451135
55.7705070972443	2.332957
55.7861270904541	1.951623
55.8017570972443	1.453031
55.8173770904541	1.002489
55.8330070972443	0.7333853
55.8486371040344	0.6813676
55.8642570972443	0.7997522
55.8798871040344	0.9798925
55.8955070972443	1.119833
55.9111371040344	1.156949
55.9267570972443	1.094808
55.9423871040344	0.9659152
55.9580171108246	0.8238337
55.9736371040344	0.7109685
55.9892671108246	0.6249447
56.0048871040344	0.5506401
56.0205171108246	0.4921579
56.0361371040344	0.4651308
56.0517671108246	0.5038872
56.0673971176147	0.6260393
56.0830171108246	0.7942867
56.0986471176147	0.9243155
56.1142671108246	0.9117477
56.1298971176147	0.6875434
56.1455171108246	0.2571239
56.1611471176147	-0.300643
56.1767771244049	-0.8531289
56.1923971176147	-1.286746
56.2080271244049	-1.541192
56.2236471176147	-1.641067
56.2392771244049	-1.64253
56.2548971176147	-1.603742
56.2705271244049	-1.560342
56.2861568927765	-1.520071
56.3017771244049	-1.475135
56.3174068927765	-1.413029
56.3330271244049	-1.341098
56.3486568927765	-1.271147
56.3642771244049	-1.228635
56.3799068927765	-1.244714
56.3955368995667	-1.33648
56.4111568927765	-1.501415
56.4267868995667	-1.690201
56.4424068927765	-1.851907
56.4580368995667	-1.928926
56.4736568927765	-1.912871
56.4892868995667	-1.837549
56.5049169063568	-1.759133
56.5205368995667	-1.701531
56.5361669063568	-1.642843
56.5517868995667	-1.538325
56.5674169063568	-1.366814
56.5830368995667	-1.199959
56.5986669063568	-1.160702
56.614296913147	-1.368915
56.6299169063568	-1.825215
56.645546913147	-2.376678
56.6611669063568	-2.788872
56.676796913147	-2.839391
56.6924169063568	-2.459362
56.708046913147	-1.719151
56.7236769199371	-0.817028
56.739296913147	0.04614305
56.7549269199371	0.7252855
56.770546913147	1.177543
56.7861769199371	1.426752
56.801796913147	1.526357
56.8174269199371	1.543518
56.8330569267273	1.527856
56.8486769199371	1.530999
56.8643069267273	1.578929
56.8799269199371	1.690598
56.8955569267273	1.844213
56.9111769199371	2.007805
56.9268069267273	2.143162
56.9424369335175	2.221373
56.9580569267273	2.225429
56.9736869335175	2.144518
56.9893069267273	1.988208
57.0049369335175	1.798927
57.0205569267273	1.63271
57.0361869335175	1.540704
57.0518169403076	1.528953
57.0674369335175	1.563144
57.0830669403076	1.568622
57.0986869335175	1.507428
57.1143169403076	1.378079
57.1299369335175	1.243166
57.1455669403076	1.159876
57.1611969470978	1.141362
57.1768169403076	1.145463
57.1924469470978	1.093328
57.2080669403076	0.9426584
57.2236969470978	0.7135
57.2393169403076	0.4835081
57.2549469470978	0.3353028
57.2705769538879	0.3143175
57.2861969470978	0.3894434
57.3018269538879	0.4753916
57.3174469470978	0.4933891
57.3330769538879	0.427475
57.3486969470978	0.3226752
57.3643269538879	0.2447951
57.3799569606781	0.2317264
57.3955769538879	0.2538333
57.4112069606781	0.2410946
57.4268269538879	0.1200168
57.4424569606781	-0.1201506
57.4580769538879	-0.4178998
57.4737069606781	-0.6751816
57.4893369674683	-0.821908
57.5049569606781	-0.8454096
57.5205869674683	-0.8047967
57.5362069606781	-0.7824008
57.5518369674683	-0.8406332
57.5674669742584	-0.9802241
57.5830869674683	-1.173549
57.5987169742584	-1.379597
57.6143369674683	-1.591476
57.6299669742584	-1.828063
57.6455869674683	-2.100461
57.6612169742584	-2.378741
57.6768469810486	-2.573167
57.6924669742584	-2.570865
57.7080969810486	-2.290029
57.7237169742584	-1.708146
57.7393469810486	-0.8900242
57.7549669742584	0.03094435
57.7705969810486	0.9021287
57.7862269878387	1.574529
57.8018469810486	1.944695
57.8174769878387	1.982137
57.8330969810486	1.748806
57.8487269878387	1.373064
57.8643469810486	1.02694
57.8799769878387	0.8512692
57.8956069946289	0.8893919
57.9112269878387	1.09168
57.9268569946289	1.335105
57.9424769878387	1.493586
57.9581069946289	1.492105
57.9737269878387	1.342329
57.9893569946289	1.104091
58.0049870014191	0.8459082
58.0206069946289	0.6185093
58.0362370014191	0.4375091
58.0518569946289	0.3059831
58.0674870014191	0.2401571
58.0831069946289	0.2724133
58.0987370014191	0.4090095
58.1143670082092	0.6133351
58.1299870014191	0.8062
58.1456170082092	0.8836794
58.1612370014191	0.7659345
58.1768670082092	0.4238062
58.1924870014191	-0.08767796
58.2081170082092	-0.6624413
58.2237470149994	-1.152146
58.2393670082092	-1.4361
58.2549970149994	-1.457602
58.2706170082092	-1.240944
58.2862470149994	-0.8893867
58.3018670082092	-0.5386586
58.3174970149994	-0.2995706
58.3331270217896	-0.2194214
58.3487470149994	-0.3011894
58.3643770217896	-0.505383
58.3799970149994	-0.7849226
58.3956270217896	-1.100463
58.4112470149994	-1.405105
58.4268770217896	-1.645947
58.4425070285797	-1.765742
58.4581270217896	-1.742517
58.4737570285797	-1.594946
58.4893770217896	-1.407285
58.5050070285797	-1.281358
58.5206270217896	-1.261233
58.5362570285797	-1.321748
58.5518870353699	-1.382391
58.5675070285797	-1.368805
58.5831370353699	-1.267088
58.5987570285797	-1.133859
58.6143870353699	-1.045594
58.6300070285797	-1.047231
58.6456370353699	-1.127881
58.66126704216	-1.227161
58.6768870353699	-1.295654
58.69251704216	-1.329566
58.7081370353699	-1.358669
58.72376704216	-1.410744
58.7393870353699	-1.482248
58.75501704216	-1.511661
58.7706470489502	-1.426857
58.78626704216	-1.176286
58.8018970489502	-0.7655654
58.81751704216	-0.2483644
58.8331470489502	0.2993517
58.84876704216	0.8081651
58.8643970489502	1.22676
58.8800270557404	1.535446
58.8956470489502	1.737833
58.9112770557404	1.8365
58.9268970489502	1.843637
58.9425270557404	1.780998
58.9581470489502	1.671223
58.9737770557404	1.552351
58.9894070625305	1.460955
59.0050270557404	1.425036
59.0206570625305	1.452719
59.0362770557404	1.512468
59.0519070625305	1.554112
59.0675270557404	1.547417
59.0831570625305	1.487288
59.0987870693207	1.40486
59.1144070625305	1.334358
59.1300370693207	1.283273
59.1456570625305	1.217623
59.1612870693207	1.088118
59.1769070625305	0.873621
59.1925370693207	0.6068211
59.2081670761108	0.3748407
59.2237870693207	0.27457
59.2394170761108	0.3625674
59.2550370693207	0.6240559
59.2706670761108	0.9602237
59.2862870693207	1.242397
59.3019170761108	1.341289
59.317547082901	1.192282
59.3331670761108	0.8209801
59.348797082901	0.3298621
59.3644170761108	-0.1341891
59.380047082901	-0.4484177
59.3956670761108	-0.5488577
59.411297082901	-0.4612074
59.4269270896912	-0.2724609
59.442547082901	-0.08058548
59.4581770896912	0.04831553
59.473797082901	0.09332609
59.4894270896912	0.04070234
59.505047082901	-0.111321
59.5206770896912	-0.3576999
59.5363070964813	-0.6629968
59.5519270896912	-0.9567819
59.5675570964813	-1.149464
59.5831770896912	-1.175686
59.5988070964813	-1.046871
59.6144270896912	-0.8509121
59.6300570964813	-0.7093716
59.6456871032715	-0.728085
59.6613070964813	-0.9375701
59.6769371032715	-1.296155
59.6925570964813	-1.711304
59.7081871032715	-2.098917
59.7238070964813	-2.39809
59.7394371032715	-2.589942
59.7550671100616	-2.665608
59.7706871032715	-2.625134
59.7863171100616	-2.464811
59.8019371032715	-2.205033
59.8175671100616	-1.891089
59.8331971168518	-1.580529
59.8488171100616	-1.31266
59.8644471168518	-1.078319
59.8800671100616	-0.8299446
59.8956971168518	-0.5196648
59.9113171100616	-0.1247506
59.9269471168518	0.3338294
59.942577123642	0.7821026
59.9581971168518	1.139691
59.973827123642	1.369629
59.9894471168518	1.489958
60.005077123642	1.566567
60.0206971168518	1.663758
60.036327123642	1.810346
60.0519571304321	1.997902
60.067577123642	2.170365
60.0832071304321	2.272078
60.098827123642	2.259359
60.1144571304321	2.119904
60.130077123642	1.861139
60.1457071304321	1.516124
60.1613368988037	1.135512
60.1769571304321	0.7923121
60.1925868988037	0.5682383
60.2082071304321	0.4993443
60.2238368988037	0.5868468
60.2394571304321	0.7633972
60.2550868988037	0.9401608
60.2707169055939	1.020006
60.2863368988037	0.9592199
60.3019669055939	0.7685795
60.3175868988037	0.5200224
60.3332169055939	0.2924623
60.3488368988037	0.1464477
60.3644669055939	0.1062613
60.380096912384	0.1612048
60.3957169055939	0.2852497
60.411346912384	0.4438119
60.4269669055939	0.6093607
60.442596912384	0.7304602
60.4582169055939	0.7477121
60.473846912384	0.599947
60.4894769191742	0.2654881
60.505096912384	-0.2212486
60.5207269191742	-0.7672648
60.536346912384	-1.264544
60.5519769191742	-1.624672
60.567596912384	-1.79484
60.5832269191742	-1.780164
60.5988569259644	-1.609261
60.6144769191742	-1.323361
60.6301069259644	-0.9784226
60.6457269191742	-0.6395249
60.6613569259644	-0.3944335
60.6769769191742	-0.3051157
60.6926069259644	-0.3918447
60.7082369327545	-0.6240282
60.7238569259644	-0.9140487
60.7394869327545	-1.178681
60.7551069259644	-1.354585
60.7707369327545	-1.447475
60.7863569259644	-1.48888
60.8019869327545	-1.512265
60.8176169395447	-1.516861
60.8332369327545	-1.497087
60.8488669395447	-1.456278
60.8644869327545	-1.405991
60.8801169395447	-1.392258
60.8957369327545	-1.418087
60.9113669395447	-1.426712
60.9269969463348	-1.306181
60.9426169395447	-0.9498525
60.9582469463348	-0.3379693
60.9738669395447	0.4312305
60.9894969463348	1.163643
61.0051169395447	1.659792
61.0207469463348	1.797546
61.036376953125	1.608255
61.0519969463348	1.232226
61.067626953125	0.8657026
61.0832469463348	0.6582675
61.098876953125	0.6723886
61.1144969463348	0.8717384
61.130126953125	1.163144
61.1457569599152	1.447652
61.161376953125	1.649951
61.1770069599152	1.751839
61.192626953125	1.778142
61.2082569599152	1.762878
61.223876953125	1.722885
61.2395069599152	1.640834
61.2551369667053	1.49118
61.2707569599152	1.25068
61.2863869667053	0.9484315
61.3020069599152	0.6426973
61.3176369667053	0.4106119
61.3332569599152	0.2867846
61.3488869667053	0.2549939
61.3645169734955	0.2547412
61.3801369667053	0.2130139
61.3957669734955	0.09994674
61.4113869667053	-0.06648421
61.4270169734955	-0.2407427
61.4426369667053	-0.3756938
61.4582669734955	-0.4278328
61.4738969802856	-0.3835526
61.4895169734955	-0.2456617
61.5051469802856	-0.04316354
61.5207669734955	0.1572864
61.5363969802856	0.2661562
61.5520169734955	0.2128298
61.5676469802856	-0.01034713
61.5832769870758	-0.3292227
61.5988969802856	-0.6025176
61.6145269870758	-0.7064214
61.6301469802856	-0.5954981
61.6457769870758	-0.3449941
61.6613969802856	-0.09522009
61.6770269870758	0.03065825
61.692656993866	-0.001269817
61.7082769870758	-0.1395772
61.723906993866	-0.2898071
61.7395269870758	-0.391207
61.755156993866	-0.4810452
61.7707769870758	-0.6440802
61.786406993866	-0.9634864
61.8020370006561	-1.43872
61.817656993866	-1.984811
61.8332870006561	-2.449264
61.848906993866	-2.706184
61.8645370006561	-2.732543
61.880156993866	-2.593307
61.8957870006561	-2.42071
61.9114170074463	-2.296182
61.9270370006561	-2.225436
61.9426670074463	-2.117665
61.9582870006561	-1.87053
61.9739170074463	-1.413254
61.9895470142365	-0.7664304
62.0051670074463	-0.0454011
62.0207970142365	0.631613
62.0364170074463	1.159571
62.0520470142365	1.512089
62.0676670074463	1.708887
62.0832970142365	1.787765
62.0989270210266	1.759999
62.1145470142365	1.616464
62.1301770210266	1.354994
62.1457970142365	0.9984031
62.1614270210266	0.6070111
62.1770470142365	0.2688808
62.1926770210266	0.05769682
62.2083070278168	0.002254963
62.2239270210266	0.08985758
62.2395570278168	0.25862
62.2551770210266	0.422276
62.2708070278168	0.5019937
62.2864270210266	0.4527147
62.3020570278168	0.2916629
62.3176870346069	0.07384372
62.3333070278168	-0.1167731
62.3489370346069	-0.2188656
62.3645570278168	-0.2193773
62.3801870346069	-0.1488757
62.3958070278168	-0.05593812
62.4114370346069	0.04616928
62.4270670413971	0.1626914
62.4426870346069	0.3446085
62.4583170413971	0.5977517
62.4739370346069	0.8972286
62.4895670413971	1.18432
62.5051870346069	1.373835
62.5208170413971	1.418302
62.5364470481873	1.31514
62.5520670413971	1.09861
62.5676970481873	0.8246516
62.5833170413971	0.5600883
62.5989470481873	0.328809
62.6145670413971	0.1536307
62.6301970481873	0.03241885
62.6458270549774	-0.03761983
62.6614470481873	-0.05080497
62.6770770549774	-0.0009595156
62.6926970481873	0.1268299
62.7083270549774	0.3286136
62.7239470481873	0.5695716
62.7395770549774	0.7728415
62.7552070617676	0.8556389
62.7708270549774	0.7427359
62.7864570617676	0.4162196
62.8020770549774	-0.06399775
62.8177070617676	-0.6042104
62.8333270549774	-1.096704
62.8489570617676	-1.46812
62.8645870685577	-1.695983
62.8802070617676	-1.795919
62.8958370685577	-1.792917
62.9114570617676	-1.692153
62.9270870685577	-1.483976
62.9427070617676	-1.143285
62.9583370685577	-0.675023
62.9739670753479	-0.1334972
62.9895870685577	0.3896663
63.0052170753479	0.7942342
63.0208370685577	1.02774
63.0364670753479	1.117568
63.0520870685577	1.143483
63.0677170753479	1.199772
63.0833470821381	1.332272
63.0989670753479	1.511095
63.1145970821381	1.672629
63.1302170753479	1.75006
63.1458470821381	1.718555
63.1614670753479	1.612487
63.1770970821381	1.480633
63.1927270889282	1.348854
63.2083470821381	1.212606
63.2239770889282	1.045999
63.2395970821381	0.8266498
63.2552270889282	0.5710388
63.2708470821381	0.317134
63.2864770889282	0.111325
63.3021070957184	-0.007480264
63.3177270889282	-0.02959824
63.3333570957184	0.04166651
63.3489770889282	0.1844826
63.3646070957184	0.3505294
63.3802270889282	0.4649431
63.3958570957184	0.4600221
63.4114871025085	0.3002142
63.4271070957184	0.01273036
63.4427371025085	-0.33775
63.4583570957184	-0.683054
63.4739871025085	-0.9802264
63.4896070957184	-1.21603
63.5052371025085	-1.384851
63.5208671092987	-1.482705
63.5364871025085	-1.484192
63.5521171092987	-1.390567
63.5677371025085	-1.234266
63.5833671092987	-1.098197
63.5989871025085	-1.073277
63.6146171092987	-1.201724
63.6302471160889	-1.445851
63.6458671092987	-1.712141
63.6614971160889	-1.903015
63.6771171092987	-1.970492
63.6927471160889	-1.934448
63.7083671092987	-1.843292
63.7239971160889	-1.745437
63.739627122879	-1.656147
63.7552471160889	-1.569965
63.770877122879	-1.473104
63.7864971160889	-1.359811
63.802127122879	-1.208877
63.8177471160889	-0.9928329
63.833377122879	-0.686597
63.8490071296692	-0.2810405
63.864627122879	0.2114623
63.8802571296692	0.7487161
63.895877122879	1.287972
63.9115071296692	1.787188
63.927127122879	2.221746
63.9427571296692	2.568278
63.9583868980408	2.810902
63.9740071296692	2.918046
63.9896368980408	2.885282
64.0052571296692	2.744752
64.0208868980408	2.552778
64.0365071296692	2.382919
64.0521368980408	2.277546
64.0677669048309	2.239832
64.0833868980408	2.236184
64.0990169048309	2.2288
64.1146368980408	2.189761
64.1302669048309	2.115486
64.1458868980408	2.02309
64.1615169048309	1.908323
64.1771469116211	1.766409
64.1927669048309	1.589023
64.2083969116211	1.38863
64.2240169048309	1.191224
64.2396469116211	1.023857
64.2552669048309	0.8891391
64.2708969116211	0.7665352
64.2865269184113	0.6005713
64.3021469116211	0.3537358
64.3177769184113	0.02215362
64.3333969116211	-0.3417097
64.3490269184113	-0.6723232
64.3646469116211	-0.8969684
64.3802769184113	-0.9878998
64.3959069252014	-0.9535425
64.4115269184113	-0.8359566
64.4271569252014	-0.6995032
64.4427769184113	-0.6109004
64.4584069252014	-0.6095459
64.4740269184113	-0.7207823
64.4896569252014	-0.9245343
64.5052869319916	-1.159321
64.5209069252014	-1.343504
64.5365369319916	-1.418896
64.5521569252014	-1.374956
64.5677869319916	-1.261428
64.5834069252014	-1.165932
64.5990369319916	-1.158686
64.6146669387817	-1.264256
64.6302869319916	-1.461743
64.6459169387817	-1.701182
64.6615369319916	-1.940214
64.6771669387817	-2.152583
64.6927969455719	-2.31529
64.7084169387817	-2.402588
64.7240469455719	-2.375656
64.7396669387817	-2.200617
64.7552969455719	-1.872784
64.7709169387817	-1.431602
64.7865469455719	-0.9515407
64.8021769523621	-0.4875987
64.8177969455719	-0.08761072
64.8334269523621	0.2490613
64.8490469455719	0.5413573
64.8646769523621	0.8126671
64.8802969455719	1.075044
64.8959269523621	1.320653
64.9115569591522	1.528574
64.9271769523621	1.672847
64.9428069591522	1.719426
64.9584269523621	1.643956
64.9740569591522	1.4587
64.9896769523621	1.213569
65.0053069591522	1.005559
65.0209369659424	0.9261799
65.0365569591522	1.006025
65.0521869659424	1.178903
65.0678069591522	1.312096
65.0834369659424	1.272427
65.0990569591522	1.012712
65.1146869659424	0.6193838
65.1303169727325	0.2625751
65.1459369659424	0.118988
65.1615669727325	0.2499127
65.1771869659424	0.5749497
65.1928169727325	0.9194579
65.2084369659424	1.105503
65.2240669727325	1.052194
65.2396969795227	0.7953949
65.2553169727325	0.4558139
65.2709469795227	0.1284175
65.2865669727325	-0.155889
65.3021969795227	-0.4221835
65.3178169727325	-0.6940269
65.3334469795227	-0.9514432
65.3490769863129	-1.105863
65.3646969795227	-1.062122
65.3803269863129	-0.8020229
65.3959469795227	-0.4236474
65.4115769863129	-0.1075082
65.4271969795227	-0.02480221
65.4428269863129	-0.24681
65.458456993103	-0.6816387
65.4740769863129	-1.140997
65.489706993103	-1.435438
65.5053269863129	-1.471865
65.520956993103	-1.302011
65.5365769863129	-1.06715
65.552206993103	-0.9234128
65.5678369998932	-0.9611502
65.583456993103	-1.176805
65.5990869998932	-1.493545
65.614706993103	-1.805588
65.6303369998932	-2.028058
65.645956993103	-2.120584
65.6615869998932	-2.104569
65.6772170066833	-2.04373
65.6928369998932	-2.007898
65.7084670066833	-2.025382
65.7240869998932	-2.063061
65.7397170066833	-2.024511
65.7553369998932	-1.808535
65.7709670066833	-1.368896
65.7865970134735	-0.7461267
65.8022170066833	-0.05545807
65.8178470134735	0.5650024
65.8334670066833	1.022533
65.8490970134735	1.303527
65.8647170066833	1.467456
65.8803470134735	1.594656
65.8959770202637	1.731774
65.9115970134735	1.875945
65.9272270202637	1.982504
65.9428470134735	2.001136
65.9584770202637	1.915828
65.9740970134735	1.752893
65.9897270202637	1.569098
66.0053570270538	1.425066
66.0209770202637	1.368863
66.0366070270538	1.405273
66.0522270202637	1.509013
66.0678570270538	1.635824
66.0834770202637	1.754113
66.0991070270538	1.852025
66.114737033844	1.927654
66.1303570270538	1.98029
66.145987033844	1.972619
66.1616070270538	1.858523
66.177237033844	1.574484
66.1928570270538	1.110619
66.208487033844	0.5151963
66.2241170406342	-0.09335232
66.239737033844	-0.5632048
66.2553670406342	-0.7889032
66.270987033844	-0.7408462
66.2866170406342	-0.5004892
66.302237033844	-0.1999245
66.3178670406342	0.01646423
66.3334970474243	0.08119774
66.3491170406342	0.004277706
66.3647470474243	-0.1468477
66.3803670406342	-0.2856326
66.3959970474243	-0.3487864
66.4116170406342	-0.3230491
66.4272470474243	-0.2554312
66.4428770542145	-0.2217307
66.4584970474243	-0.3133516
66.4741270542145	-0.5645952
66.4897470474243	-0.9442186
66.5053770542145	-1.3494
66.5209970474243	-1.652814
66.5366270542145	-1.771241
66.5522570610046	-1.716604
66.5678770542145	-1.581163
66.5835070610046	-1.485795
66.5991270542145	-1.509471
66.6147570610046	-1.633515
66.6303770542145	-1.752821
66.6460070610046	-1.753637
66.6616370677948	-1.580335
66.6772570610046	-1.268358
66.6928870677948	-0.8997569
66.7085070610046	-0.5487456
66.7241370677948	-0.2234778
66.7397570610046	0.1113734
66.7553870677948	0.4934635
66.771017074585	0.9213452
66.7866370677948	1.324788
66.802267074585	1.605538
66.8178870677948	1.679642
66.833517074585	1.505152
66.8491370677948	1.127426
66.864767074585	0.6661887
66.8803970813751	0.2722931
66.896017074585	0.08566809
66.9116470813751	0.1665268
66.927267074585	0.4615932
66.9428970813751	0.8260703
66.9585270881653	1.102859
66.9741470813751	1.174769
66.9897770881653	1.023159
67.0053970813751	0.7234297
67.0210270881653	0.4040937
67.0366470813751	0.1711025
67.0522770881653	0.07399511
67.0679070949554	0.09454298
67.0835270881653	0.1876316
67.0991570949554	0.3144922
67.1147770881653	0.4481735
67.1304070949554	0.5550003
67.1460270881653	0.581357
67.1616570949554	0.4763618
67.1772871017456	0.2171121
67.1929070949554	-0.144906
67.2085371017456	-0.4962583
67.2241570949554	-0.7132301
67.2397871017456	-0.7272038
67.2554070949554	-0.561924
67.2710371017456	-0.3148189
67.2866671085358	-0.09783649
67.3022871017456	0.009756565
67.3179171085358	-0.001832008
67.3335371017456	-0.08522415
67.3491671085358	-0.1872196
67.3647871017456	-0.2896676
67.3804171085358	-0.4269834
67.3960471153259	-0.6534901
67.4116671085358	-0.9880419
67.4272971153259	-1.380844
67.4429171085358	-1.733263
67.4585471153259	-1.935629
67.4741671085358	-1.927998
67.4897971153259	-1.733791
67.5054271221161	-1.44914
67.5210471153259	-1.172881
67.5366771221161	-0.9711795
67.5522971153259	-0.8437047
67.5679271221161	-0.7504311
67.5835471153259	-0.65661
67.5991771221161	-0.5668225
67.6148071289062	-0.5076227
67.6304271221161	-0.5060372
67.6460571289062	-0.5579453
67.6616771221161	-0.6204276
67.6773071289062	-0.6360941
67.6929271221161	-0.5568161
67.7085571289062	-0.3870001
67.7241868972778	-0.1599011
67.7398071289062	0.08427811
67.7554368972778	0.3338485
67.7710571289062	0.5866303
67.7866868972778	0.8458557
67.8023071289062	1.090513
67.8179368972778	1.247554
67.833566904068	1.245856
67.8491868972778	1.057704
67.864816904068	0.7358794
67.8804368972778	0.3981109
67.896066904068	0.167232
67.9116868972778	0.09699965
67.927316904068	0.1437502
67.9429469108582	0.1889839
67.958566904068	0.1167665
67.9741969108582	-0.1133165
67.989816904068	-0.4105487
68.0054469108582	-0.6131458
68.021066904068	-0.5795684
68.0366969108582	-0.2609668
68.0523269176483	0.2445354
68.0679469108582	0.7744689
68.0835769176483	1.176367
68.0991969108582	1.368724
68.1148269176483	1.359908
68.1304469108582	1.200865
68.1460769176483	0.9483776
68.1617069244385	0.6452341
68.1773269176483	0.3504753
68.1929569244385	0.1336093
68.2085769176483	0.05414343
68.2242069244385	0.1025743
68.2398269176483	0.1812658
68.2554569244385	0.1574383
68.2710869312286	-0.06294537
68.2867069244385	-0.4568872
68.3023369312286	-0.8698616
68.3179569244385	-1.103599
68.3335869312286	-1.046079
68.3492069244385	-0.731997
68.3648369312286	-0.3471956
68.3804669380188	-0.1111345
68.3960869312286	-0.1304984
68.4117169380188	-0.356883
68.4273369312286	-0.6082463
68.4429669380188	-0.6884913
68.4585869312286	-0.5098691
68.4742169380188	-0.1553183
68.489846944809	0.1880059
68.5054669380188	0.3322673
68.521096944809	0.1984344
68.5367169380188	-0.1265163
68.552346944809	-0.482317
68.5679669380188	-0.7019167
68.583596944809	-0.7079568
68.5992269515991	-0.5470614
68.614846944809	-0.3221483
68.6304769515991	-0.1186314
68.646096944809	0.06720257
68.6617269515991	0.2965631
68.677346944809	0.6377754
68.6929769515991	1.085295
68.7086069583893	1.532901
68.7242269515991	1.836998
68.7398569583893	1.902905
68.7554769515991	1.74392
68.7711069583893	1.475267
68.7867269515991	1.227971
68.8023569583893	1.076074
68.8179869651794	0.9832225
68.8336069583893	0.8404312
68.8492369651794	0.5546336
68.8648569583893	0.1298642
68.8804869651794	-0.3126311
68.8961069583893	-0.5917621
68.9117369651794	-0.5776634
68.9273669719696	-0.2607574
68.9429869651794	0.227922
68.9586169719696	0.6956434
68.9742369651794	0.9856858
68.9898669719696	1.051559
69.0054869651794	0.9540567
69.0211169719696	0.7908578
69.0367469787598	0.6367788
69.0523669719696	0.496304
69.0679969787598	0.3357449
69.0836169719696	0.1345029
69.0992469787598	-0.07679272
69.1148669719696	-0.2332172
69.1304969787598	-0.3025737
69.1461269855499	-0.2994165
69.1617469787598	-0.3055692
69.1773769855499	-0.3951445
69.1929969787598	-0.5779915
69.2086269855499	-0.8011756
69.2242469787598	-0.9733677
69.2398769855499	-1.033348
69.2555069923401	-0.9943619
69.2711269855499	-0.9224257
69.2867569923401	-0.9019566
69.3023769855499	-0.9674206
69.3180069923401	-1.106159
69.3336269855499	-1.260942
69.3492569923401	-1.388999
69.3648869991302	-1.491395
69.3805069923401	-1.590198
69.3961369991302	-1.719251
69.4117569923401	-1.876567
69.4273869991302	-2.021749
69.4430069923401	-2.089055
69.4586369991302	-2.027855
69.4742670059204	-1.820942
69.4898869991302	-1.49171
69.5055170059204	-1.121443
69.5211369991302	-0.800581
69.5367670059204	-0.6130466
69.5523970127106	-0.5708146
69.5680170059204	-0.6095748
69.5836470127106	-0.6123915
69.5992670059204	-0.4676208
69.6148970127106	-0.1299586
69.6305170059204	0.3463225
69.6461470127106	0.8469968
69.6617770195007	1.259439
69.6773970127106	1.532933
69.6930270195007	1.701698
69.7086470127106	1.835373
69.7242770195007	1.988403
69.7398970127106	2.15203
69.7555270195007	2.26612
69.7711570262909	2.278427
69.7867770195007	2.156939
69.8024070262909	1.938109
69.8180270195007	1.67082
69.8336570262909	1.397529
69.8492770195007	1.121899
69.8649070262909	0.8422933
69.8805370330811	0.5758729
69.8961570262909	0.3697705
69.9117870330811	0.2924299
69.9274070262909	0.3740997
69.9430370330811	0.5814137
69.9586570262909	0.8191338
69.9742870330811	0.9646454
69.9899170398712	0.9401803
70.0055370330811	0.7303524
70.0211670398712	0.4151392
70.0367870330811	0.1002412
70.0524170398712	-0.09145594
70.0680370330811	-0.0793519
70.0836670398712	0.1445932
70.0992970466614	0.5264096
70.1149170398712	0.9640136
70.1305470466614	1.336281
70.1461670398712	1.544356
70.1617970466614	1.540273
70.1774170398712	1.339222
70.1930470466614	1.011351
70.2086770534515	0.6174808
70.2242970466614	0.1941195
70.2399270534515	-0.2636199
70.2555470466614	-0.7701068
70.2711770534515	-1.296129
70.2867970466614	-1.753463
70.3024270534515	-2.026341
70.3180570602417	-2.041009
70.3336770534515	-1.838268
70.3493070602417	-1.579355
70.3649270534515	-1.458834
70.3805570602417	-1.60783
70.3961770534515	-2.008343
70.4118070602417	-2.510215
70.4274370670319	-2.917481
70.4430570602417	-3.100364
70.4586870670319	-3.038624
70.4743070602417	-2.826959
70.4899370670319	-2.572377
70.5055570602417	-2.351716
70.5211870670319	-2.178036
70.536817073822	-2.041328
70.5524370670319	-1.927082
70.568067073822	-1.826791
70.5836870670319	-1.728468
70.599317073822	-1.599717
70.6149370670319	-1.386794
70.630567073822	-1.05548
70.6461970806122	-0.6034379
70.661817073822	-0.08529329
70.6774470806122	0.4199872
70.693067073822	0.8540792
70.7086970806122	1.19318
70.724317073822	1.43774
70.7399470806122	1.607028
70.7555770874023	1.719532
70.7711970806122	1.781545
70.7868270874023	1.808753
70.8024470806122	1.828015
70.8180770874023	1.859343
70.8336970806122	1.903913
70.8493270874023	1.931833
70.8649570941925	1.89966
70.8805770874023	1.761121
70.8962070941925	1.524353
70.9118270874023	1.249216
70.9274570941925	1.01816
70.9430770874023	0.8827834
70.9587070941925	0.8612289
70.9743371009827	0.92135
70.9899570941925	1.012778
71.0055871009827	1.097116
71.0212070941925	1.142225
71.0368371009827	1.118427
71.0524570941925	0.9960971
71.0680871009827	0.7659137
71.0837171077728	0.4591463
71.0993371009827	0.1473761
71.1149671077728	-0.06880927
71.1305871009827	-0.1212914
71.1462171077728	-0.01422167
71.1618371009827	0.1645095
71.1774671077728	0.2907429
71.193097114563	0.2707162
71.2087171077728	0.1000278
71.224347114563	-0.1385114
71.2399671077728	-0.3275828
71.255597114563	-0.3903642
71.2712171077728	-0.3232284
71.286847114563	-0.1892164
71.3024771213531	-0.06476998
71.318097114563	0.01990891
71.3337271213531	0.03852701
71.349347114563	-0.009269953
71.3649771213531	-0.1391916
71.380597114563	-0.3805952
71.3962271213531	-0.7560954
71.4118571281433	-1.219239
71.4274771213531	-1.656973
71.4431071281433	-1.945122
71.4587271213531	-1.999227
71.4743571281433	-1.850572
71.4899771213531	-1.616429
71.5056071281433	-1.441692
71.5212368965149	-1.392679
71.5368571281433	-1.427236
71.5524868965149	-1.425418
71.5681071281433	-1.271672
71.5837368965149	-0.9259043
71.5993571281433	-0.4214859
71.6149868965149	0.1550474
71.6306169033051	0.7475855
71.6462368965149	1.335191
71.6618669033051	1.919257
71.6774868965149	2.45318
71.6931169033051	2.849342
71.7087368965149	3.000105
71.7243669033051	2.855475
71.7399969100952	2.486653
71.7556169033051	2.036714
71.7712469100952	1.660897
71.7868669033051	1.431804
71.8024969100952	1.313248
71.8181269168854	1.215845
71.8337469100952	1.072572
71.8493769168854	0.9000714
71.8649969100952	0.7770944
71.8806269168854	0.8025775
71.8962469100952	0.9893861
71.9118769168854	1.274905
71.9275069236755	1.537974
71.9431269168854	1.64765
71.9587569236755	1.553182
71.9743769168854	1.280614
71.9900069236755	0.9183455
72.0056269168854	0.5401542
72.0212569236755	0.1948776
72.0368869304657	-0.1166646
72.0525069236755	-0.3903186
72.0681369304657	-0.5858381
72.0837569236755	-0.662514
72.0993869304657	-0.5903821
72.1150069236755	-0.376687
72.1306369304657	-0.08432913
72.1462669372559	0.1874089
72.1618869304657	0.3420582
72.1775169372559	0.3255029
72.1931369304657	0.1375804
72.2087669372559	-0.1645555
72.2243869304657	-0.4949183
72.2400169372559	-0.7697902
72.255646944046	-0.9490128
72.2712669372559	-1.057984
72.286896944046	-1.154272
72.3025169372559	-1.295997
72.318146944046	-1.513172
72.3337669372559	-1.786602
72.349396944046	-2.042914
72.3650269508362	-2.205025
72.380646944046	-2.223956
72.3962769508362	-2.107676
72.411896944046	-1.940722
72.4275269508362	-1.824092
72.443146944046	-1.822413
72.4587769508362	-1.905713
72.4744069576263	-1.965487
72.4900269508362	-1.847384
72.5056569576263	-1.448189
72.5212769508362	-0.7741108
72.5369069576263	0.05006981
72.5525269508362	0.8215098
72.5681569576263	1.382725
72.5837869644165	1.674184
72.5994069576263	1.761329
72.6150369644165	1.764754
72.6306569576263	1.790058
72.6462869644165	1.851008
72.6619069576263	1.880344
72.6775369644165	1.812984
72.6931669712067	1.640414
72.7087869644165	1.454124
72.7244169712067	1.356833
72.7400369644165	1.387802
72.7556669712067	1.466366
72.7712869644165	1.427657
72.7869169712067	1.140126
72.8025469779968	0.5929923
72.8181669712067	-0.07406998
72.8337969779968	-0.6399159
72.8494169712067	-0.9054332
72.8650469779968	-0.8038077
72.8806669712067	-0.425148
