onset	BVP
2.84212303161621	-40.02215
2.85774302482605	-33.36533
2.87337303161621	-24.40971
2.88899302482605	-14.23351
2.90462303161621	-3.932983
2.92025303840637	5.581657
2.93587303161621	13.75861
2.95150303840637	20.35223
2.96712303161621	25.34299
2.98275303840637	28.83544
2.99837303161621	30.97579
3.01400303840637	31.96271
3.02963304519653	32.06314
3.04525303840637	31.63435
3.06088304519653	31.03993
3.07650303840637	30.58613
3.09213304519653	30.4008
3.10775303840637	30.39806
3.12338304519653	30.34298
3.13901305198669	29.95151
3.15463304519653	29.06326
3.17026305198669	27.72576
3.18588304519653	26.17244
3.20151305198669	24.65752
3.21713304519653	23.31931
3.23276305198669	22.06675
3.24839305877686	20.62817
3.26401305198669	18.68295
3.27964305877686	16.03633
3.29526305198669	12.7424
3.31089305877686	9.104458
3.32651305198669	5.550592
3.34214305877686	2.438791
3.35777306556702	-0.08617592
3.37339305877686	-2.133423
3.38902306556702	-4.000126
3.40464305877686	-6.002165
3.42027306556702	-8.386239
3.43589305877686	-11.25049
3.45152306556702	-14.56014
3.46715307235718	-18.14093
3.48277306556702	-21.66501
3.49840307235718	-24.60807
3.51402306556702	-26.28868
3.52965307235718	-26.023
3.54527306556702	-23.34055
3.56090307235718	-18.25753
3.57653307914734	-11.33036
3.59215307235718	-3.521758
3.60778307914734	4.113985
3.62340307235718	10.78671
3.63903307914734	16.15576
3.65465307235718	20.28074
3.67028307914734	23.36686
3.6859130859375	25.58273
3.70153307914734	26.9262
3.7171630859375	27.3357
3.73278307914734	26.84315
3.7484130859375	25.70522
3.76403307914734	24.33457
3.7796630859375	23.1523
3.79529309272766	22.37602
3.8109130859375	21.94385
3.82654309272766	21.59309
3.8421630859375	21.0029
3.85779309272766	19.96228
3.8734130859375	18.45349
3.88904309272766	16.59418
3.90467309951782	14.56866
3.92029309272766	12.51183
3.93592309951782	10.48423
3.95154309272766	8.445675
3.96717309951782	6.295383
3.98279309272766	3.899366
3.99842309951782	1.156281
4.01405310630798	-1.933926
4.02967309951782	-5.252178
4.04530310630798	-8.542858
4.06092309951782	-11.54302
4.07655310630798	-14.05772
4.09217309951782	-16.07202
4.10780310630798	-17.74833
4.12343287467957	-19.34939
4.13905310630798	-21.15276
4.15468287467957	-23.34015
4.17030310630798	-25.94774
4.18593287467957	-28.83172
4.20155310630798	-31.65357
4.21718287467957	-33.85029
4.23281288146973	-34.73139
4.24843287467957	-33.62997
4.26406288146973	-30.14552
4.27968287467957	-24.35585
4.29531288146973	-16.85949
4.31094288825989	-8.613081
4.32656288146973	-0.6132069
4.34219288825989	6.406105
4.35781288146973	12.14417
4.37344288825989	16.68695
4.38906288146973	20.26641
4.40469288825989	23.08165
4.42032289505005	25.17122
4.43594288825989	26.459
4.45157289505005	26.91778
4.46719288825989	26.67793
4.48282289505005	26.05009
4.49844288825989	25.42251
4.51407289505005	25.10661
4.52970290184021	25.18252
4.54532289505005	25.49715
4.56095290184021	25.74158
4.57657289505005	25.5907
4.59220290184021	24.8629
4.60782289505005	23.55772
4.62345290184021	21.82365
4.63908290863037	19.86578
4.65470290184021	17.85987
4.67033290863037	15.89556
4.68595290184021	13.99827
4.70158290863037	12.14795
4.71720290184021	10.29007
4.73283290863037	8.362392
4.74846291542053	6.30162
4.76408290863037	4.066975
4.77971291542053	1.614601
4.79533290863037	-1.037056
4.81096291542053	-3.848461
4.82658290863037	-6.725277
4.84221291542053	-9.567669
4.85784292221069	-12.28416
4.87346291542053	-14.83715
4.88909292221069	-17.29155
4.90471291542053	-19.80472
4.92034292221069	-22.61116
4.93596291542053	-25.88667
4.95159292221069	-29.60933
4.96722292900085	-33.43045
4.98284292221069	-36.66545
4.99847292900085	-38.4607
5.01409292221069	-38.04761
5.02972292900085	-35.04808
5.04534292221069	-29.63459
5.06097292900085	-22.49195
5.07660293579102	-14.60439
5.10785293579102	-0.3307114
5.12347292900085	4.937244
5.13910293579102	8.806499
5.15472292900085	11.48297
5.17035293579102	13.23313
5.18598294258118	14.31278
5.20160293579102	14.93356
5.21723294258118	15.30118
5.23285293579102	15.61565
5.24848294258118	16.06061
5.26410293579102	16.74529
5.27973294258118	17.64361
5.29536294937134	18.61427
5.31098294258118	19.4159
5.32661294937134	19.85576
5.34223294258118	19.82138
5.35786294937134	19.34426
5.37348294258118	18.55076
5.38911294937134	17.56701
5.4047429561615	16.47853
5.42036294937134	15.27026
5.4359929561615	13.88844
5.45161294937134	12.27902
5.4672429561615	10.47744
5.48286294937134	8.590435
5.4984929561615	6.760563
5.51412296295166	5.098511
5.5297429561615	3.59874
5.54537296295166	2.157383
5.5609929561615	0.6142921
5.57662296295166	-1.138119
5.5922429561615	-3.105259
5.60787296295166	-5.168983
5.62350296974182	-7.169521
5.63912296295166	-9.012272
5.65475296974182	-10.70214
5.67037296295166	-12.37547
5.68600296974182	-14.22256
5.70162296295166	-16.41755
5.71725296974182	-19.04817
5.73288297653198	-22.10431
5.74850296974182	-25.42723
5.76413297653198	-28.68708
5.77975296974182	-31.36723
5.79538297653198	-32.80551
5.81100296974182	-32.40302
5.82663297653198	-29.79791
5.84226298332214	-25.08455
5.85788297653198	-18.79619
5.87351298332214	-11.7767
5.88913297653198	-4.900181
5.90476298332214	1.172161
5.92038297653198	6.115627
5.93601298332214	9.919491
5.9516429901123	12.71752
5.96726298332214	14.67227
5.9828929901123	15.90357
5.99851298332214	16.52293
6.0141429901123	16.68641
6.02976298332214	16.61893
6.0453929901123	16.55425
6.06102299690247	16.66924
6.0766429901123	17.01412
6.09227299690247	17.50468
6.1078929901123	17.98782
6.12352299690247	18.3094
6.1391429901123	18.37097
6.15477299690247	18.14639
6.17040300369263	17.65862
6.18602299690247	16.94387
6.20165300369263	16.00228
6.21727299690247	14.85788
6.23290300369263	13.55254
6.24852299690247	12.14783
6.26415300369263	10.70803
6.27978301048279	9.29715
6.29540300369263	7.943218
6.31103301048279	6.636562
6.32665300369263	5.330879
6.34228301048279	3.956905
6.35790300369263	2.445736
6.37353301048279	0.7581635
6.38916301727295	-1.110603
6.40478301048279	-3.125664
6.42041301727295	-5.215633
6.43603301048279	-7.296082
6.45166301727295	-9.275444
6.46728301048279	-11.1144
6.48291301727295	-12.84925
6.49854302406311	-14.61579
6.51416301727295	-16.61733
6.52979302406311	-18.98851
6.54541301727295	-21.70287
6.56104302406311	-24.41337
6.57667303085327	-26.50215
6.59229302406311	-27.20938
6.60792303085327	-25.90987
6.62354302406311	-22.38275
6.63917303085327	-16.92658
6.65479302406311	-10.29608
6.67042303085327	-3.428761
6.68605303764343	2.846489
6.70167303085327	7.99617
6.71730303764343	11.86396
6.73292303085327	14.57505
6.74855303764343	16.37974
6.76417303085327	17.50554
6.77980303764343	18.09911
6.79543304443359	18.22954
6.81105303764343	17.95074
6.82668304443359	17.3412
6.84230303764343	16.54689
6.85793304443359	15.74652
6.87355303764343	15.11602
6.88918304443359	14.741
6.90481305122375	14.59216
6.92043304443359	14.53673
6.93606305122375	14.38636
6.95168304443359	13.99171
6.96731305122375	13.27651
6.98293304443359	12.24826
6.99856305122375	10.9819
7.01419305801392	9.553534
7.02981305122375	8.025555
7.04544305801392	6.408741
7.06106305122375	4.696058
7.07669305801392	2.84433
7.09231305122375	0.8217449
7.10794305801392	-1.361065
7.12357306480408	-3.651072
7.13919305801392	-5.921915
7.15482306480408	-8.033321
7.17044305801392	-9.86273
7.18607306480408	-11.39323
7.20169305801392	-12.69627
7.21732306480408	-13.92205
7.23295307159424	-15.20831
7.24857306480408	-16.64925
7.26420307159424	-18.26351
7.27982306480408	-20.03214
7.29545307159424	-21.90085
7.31107306480408	-23.73599
7.32670307159424	-25.26967
7.3423330783844	-26.09014
7.35795307159424	-25.67427
7.3735830783844	-23.58994
7.38920307159424	-19.70206
7.4048330783844	-14.2924
7.42045307159424	-8.012188
7.4360830783844	-1.67414
7.45171308517456	4.037232
7.4673330783844	8.765292
7.48296308517456	12.45788
7.4985830783844	15.27469
7.51421308517456	17.35989
7.5298330783844	18.74952
7.54546308517456	19.38093
7.56109309196472	19.23651
7.57671308517456	18.45145
7.59234309196472	17.35085
7.60796308517456	16.33821
7.62359309196472	15.73252
7.63921308517456	15.64573
7.65484309196472	15.92339
7.67047309875488	16.26631
7.68609309196472	16.33327
7.70172309875488	15.90097
7.71734309196472	14.92954
7.73297309875488	13.54993
7.74859309196472	11.97058
7.76422309875488	10.40055
7.77985310554504	8.956364
7.79547309875488	7.633067
7.81110310554504	6.327739
7.82672309875488	4.896761
7.84235310554504	3.203259
7.85797309875488	1.184266
7.87360310554504	-1.127608
7.88923287391663	-3.621727
7.90485310554504	-6.133786
7.92048287391663	-8.493181
7.93610310554504	-10.57784
7.95173287391663	-12.31891
7.96735310554504	-13.71926
7.98298287391663	-14.8774
7.99861288070679	-15.95488
8.01423287391663	-17.16093
8.02986288070679	-18.70603
8.04548287391663	-20.69191
8.06111288070679	-23.02842
8.07673287391663	-25.36022
8.09236288070679	-27.08154
8.10799288749695	-27.49557
8.12361288070679	-26.05078
8.13924288749695	-22.52697
8.15486288070679	-17.17026
8.17049288749695	-10.64311
8.18611288070679	-3.816481
8.20174288749695	2.482713
8.21737289428711	7.708857
8.23299288749695	11.69093
8.24862289428711	14.5449
8.26424288749695	16.52522
8.27987289428711	17.84834
8.29549288749695	18.62696
8.31112289428711	18.87838
8.32675290107727	18.62069
8.34237289428711	17.93776
8.35800290107727	17.02034
8.37362289428711	16.09904
8.38925290107727	15.3438
8.40487289428711	14.77797
8.42050290107727	14.27098
8.43613290786743	13.61597
8.45175290107727	12.62664
8.46738290786743	11.25317
8.48300290107727	9.581985
8.49863290786743	7.8015
8.51425290107727	6.087831
8.52988290786743	4.529654
8.54551291465759	3.098734
8.56113290786743	1.648237
8.57676291465759	-0.0100708
8.59238290786743	-2.028795
8.60801291465759	-4.439898
8.62363290786743	-7.153368
8.63926291465759	-9.946037
8.65489292144775	-12.56016
8.67051291465759	-14.79795
8.68614292144775	-16.61429
8.70176291465759	-18.11799
8.71739292144775	-19.50805
8.73301291465759	-20.97497
8.74864292144775	-22.62276
8.76427292823792	-24.4606
8.77989292144775	-26.43064
8.79552292823792	-28.41636
8.81114292144775	-30.24699
8.82677292823792	-31.63296
8.84239292144775	-32.15007
8.85802292823792	-31.3037
8.87365293502808	-28.70559
8.88927292823792	-24.2621
8.90490293502808	-18.30627
8.92052292823792	-11.51665
8.93615293502808	-4.702229
8.95177292823792	1.451065
8.96740293502808	6.559307
8.98303294181824	10.55997
8.99865293502808	13.5812
9.01428294181824	15.8024
9.02990293502808	17.3509
9.04553294181824	18.28936
9.06115293502808	18.67719
9.07678294181824	18.60161
9.0924129486084	18.23774
9.10803294181824	17.79161
9.1236629486084	17.42883
9.13928294181824	17.23784
9.1549129486084	17.19141
9.17054295539856	17.18419
9.1861629486084	17.0657
9.20179295539856	16.71462
9.2174129486084	16.07277
9.23304295539856	15.17054
9.2486629486084	14.09717
9.26429295539856	12.92691
9.27992296218872	11.67006
9.29554295539856	10.24174
9.31117296218872	8.517776
9.32679295539856	6.390099
9.34242296218872	3.854362
9.35804295539856	1.011784
9.37367296218872	-1.952873
9.38930296897888	-4.846504
9.40492296218872	-7.554409
9.42055296897888	-10.05551
9.43617296218872	-12.40188
9.45180296897888	-14.69086
9.46742296218872	-17.02394
9.48305296897888	-19.48935
9.49868297576904	-22.15175
9.51430296897888	-25.04284
9.52993297576904	-28.09275
9.54555296897888	-31.08707
9.56118297576904	-33.63338
9.57680296897888	-35.22916
9.59243297576904	-35.35123
9.6080629825592	-33.65216
9.62368297576904	-30.09435
9.6393129825592	-24.98258
9.65493297576904	-18.89693
9.6705629825592	-12.53521
9.68618297576904	-6.518396
9.7018129825592	-1.257376
9.71744298934937	3.051805
9.7330629825592	6.409864
9.74869298934937	8.897228
9.7643129825592	10.5871
9.77994298934937	11.53144
9.7955629825592	11.8033
9.81119298934937	11.56835
9.82682299613953	11.1211
9.84244298934937	10.86263
9.85807299613953	11.13025
9.87369298934937	12.09177
9.88932299613953	13.64041
9.90494298934937	15.42501
9.92057299613953	16.99319
9.93620300292969	17.97043
9.95182299613953	18.20903
9.96745300292969	17.78838
9.98307299613953	16.93771
9.99870300292969	15.89129
10.0143229961395	14.77319
10.0299530029297	13.56967
10.0455830097198	12.17823
10.0612030029297	10.46949
10.0768330097198	8.361898
10.0924530029297	5.85042
10.1080830097198	3.020952
10.1237030029297	0.02672672
10.1393330097198	-2.940164
10.15496301651	-5.706268
10.1705830097198	-8.174506
10.18621301651	-10.34415
10.2018330097198	-12.30623
10.21746301651	-14.21054
10.2330830097198	-16.22494
10.24871301651	-18.44574
10.2643430233002	-20.85332
10.27996301651	-23.27317
10.2955930233002	-25.37785
10.31121301651	-26.70326
10.3268430233002	-26.76989
10.34246301651	-25.17758
10.3580930233002	-21.77783
10.3737230300903	-16.76128
10.3893430233002	-10.66019
10.4049730300903	-4.210207
10.4205930233002	1.848477
10.4362230300903	6.982358
10.4518430233002	10.94372
10.4674730300903	13.73977
10.4831030368805	15.48932
10.4987230300903	16.32685
10.5143530368805	16.35803
10.5299730300903	15.72583
10.5456030368805	14.6663
10.5612230300903	13.5286
10.5768530368805	12.69607
10.5924830436707	12.42957
10.6081030368805	12.75721
10.6237330436707	13.46722
10.6393530368805	14.20448
10.6549830436707	14.6555
10.6706030368805	14.63344
10.6862330436707	14.14458
10.7018630504608	13.2915
10.7174830436707	12.2055
10.7331130504608	10.92799
10.7487330436707	9.447855
10.7643630504608	7.733546
10.7799830436707	5.775638
10.7956130504608	3.626366
10.811243057251	1.383314
10.8268630504608	-0.8128166
10.842493057251	-2.87055
10.8581130504608	-4.739752
10.873743057251	-6.44412
10.8893630504608	-8.06459
10.904993057251	-9.730953
10.9206230640411	-11.59629
10.936243057251	-13.7908
10.9518730640411	-16.40552
10.967493057251	-19.37751
10.9831230640411	-22.47221
10.998743057251	-25.23264
11.0143730640411	-27.05936
11.0300030708313	-27.35129
11.0456230640411	-25.68316
11.0612530708313	-21.95125
11.0768730640411	-16.42304
11.0925030708313	-9.698962
11.1081230640411	-2.543171
11.1237530708313	4.264579
11.1393830776215	10.11029
11.1550030708313	14.63164
11.1706330776215	17.71384
11.1862530708313	19.44793
11.2018830776215	20.05764
11.2175030708313	19.84972
11.2331330776215	19.13952
11.2487630844116	18.21953
11.2643830776215	17.31763
11.2800130844116	16.59138
11.2956330776215	16.14388
11.3112630844116	15.96873
11.3268830776215	16.01126
11.3425130844116	16.14177
11.3581430912018	16.20803
11.3737630844116	16.04881
11.3893930912018	15.57497
11.4050130844116	14.74837
11.4206430912018	13.58926
11.4362730979919	12.16022
11.4518930912018	10.49801
11.4675230979919	8.618025
11.4831430912018	6.484888
11.4987730979919	4.082338
11.5143930912018	1.452774
11.5300230979919	-1.273235
11.5456531047821	-3.901457
11.5612730979919	-6.273603
11.5769031047821	-8.342712
11.5925230979919	-10.23547
11.6081531047821	-12.15919
11.6237730979919	-14.30943
11.6394031047821	-16.72353
11.6550331115723	-19.18398
11.6706531047821	-21.24571
11.6862831115723	-22.32949
11.7019031047821	-21.92129
11.7175331115723	-19.73865
11.7331531047821	-15.82837
11.7487831115723	-10.57369
11.7644128799438	-4.585779
11.7800331115723	1.431479
11.7956628799438	6.87348
11.8112831115723	11.28974
11.8269128799438	14.45978
11.8425331115723	16.347
11.8581628799438	17.07923
11.873792886734	16.87591
11.8894128799438	16.01447
11.905042886734	14.78854
11.9206628799438	13.47049
11.936292886734	12.28627
11.9519128799438	11.3664
11.967542886734	10.76113
11.9831728935242	10.44736
11.998792886734	10.35533
12.0144228935242	10.40205
12.030042886734	10.47043
12.0456728935242	10.42641
12.061292886734	10.1123
12.0769228935242	9.392869
12.0925529003143	8.189587
12.1081728935242	6.513347
12.1238029003143	4.495655
12.1394228935242	2.325966
12.1550529003143	0.2082586
12.1706728935242	-1.715192
12.1863029003143	-3.419563
12.2019329071045	-4.995054
12.2175529003143	-6.580119
12.2331829071045	-8.316956
12.2488029003143	-10.27867
12.2644329071045	-12.44379
12.2800529003143	-14.74486
12.2956829071045	-17.03826
12.3113129138947	-19.11008
12.3269329071045	-20.63683
12.3425629138947	-21.21832
12.3581829071045	-20.45141
12.3738129138947	-18.06199
12.3894329071045	-14.08152
12.4050629138947	-8.872715
12.4206929206848	-3.10548
12.4363129138947	2.457578
12.4519429206848	7.173088
12.4675629138947	10.67702
12.4831929206848	12.88997
12.4988129138947	13.95492
12.5144429206848	14.08505
12.530072927475	13.51235
12.5456929206848	12.45203
12.561322927475	11.12859
12.5769429206848	9.78613
12.592572927475	8.65176
12.6081929206848	7.861158
12.623822927475	7.434751
12.6394529342651	7.287918
12.655072927475	7.276623
12.6707029342651	7.271327
12.686322927475	7.172788
12.7019529342651	6.887756
12.717572927475	6.341793
12.7332029342651	5.450566
12.7488329410553	4.156739
12.7644529342651	2.468979
12.7800829410553	0.4795265
12.7957029342651	-1.68651
12.8113329410553	-3.905008
12.8269529342651	-6.090122
12.8425829410553	-8.212688
12.8582129478455	-10.28016
12.8738329410553	-12.33954
12.8894629478455	-14.46792
12.9050829410553	-16.75854
12.9207129478455	-19.24313
12.9363329410553	-21.80953
12.9519629478455	-24.12696
12.9675929546356	-25.65596
12.9832129478455	-25.81103
12.9988429546356	-24.16807
13.0144629478455	-20.67669
13.0300929546356	-15.68963
13.0457129478455	-9.885501
13.0613429546356	-4.024804
13.0769729614258	1.252642
13.0925929546356	5.571646
13.1082229614258	8.789279
13.1238429546356	10.90145
13.1394729614258	11.9764
13.1550929546356	12.12033
13.1707229614258	11.50355
13.1863529682159	10.38405
13.2019729614258	9.096528
13.2176029682159	7.944891
13.2332229614258	7.141685
13.2488529682159	6.740278
13.2644729614258	6.642595
13.2801029682159	6.692493
13.2957329750061	6.748994
13.3113529682159	6.735347
13.3269829750061	6.602844
13.3426029682159	6.318893
13.3582329750061	5.820292
13.3738529682159	5.005907
13.3894829750061	3.802542
13.4051129817963	2.201965
13.4207329750061	0.2890873
13.4363629817963	-1.772029
13.4519829750061	-3.800897
13.4676129817963	-5.69666
13.4832329750061	-7.445979
13.4988629817963	-9.142191
13.5144929885864	-10.93548
13.5301129817963	-12.95653
13.5457429885864	-15.2828
13.5613629817963	-17.8586
13.5769929885864	-20.48084
13.5926229953766	-22.75785
13.6082429885864	-24.18265
13.6238729953766	-24.20037
13.6394929885864	-22.41111
13.6551229953766	-18.72802
13.6707429885864	-13.45957
13.6863729953766	-7.307622
13.7020030021667	-1.104669
13.7176229953766	4.369104
13.7332530021667	8.632891
13.7488729953766	11.56115
13.7645030021667	13.32589
13.7801229953766	14.19789
13.7957530021667	14.4139
13.8113830089569	14.16474
13.8270030021667	13.56849
13.8426330089569	12.78707
13.8582530021667	12.01502
13.8738830089569	11.42599
13.8895030021667	11.10879
13.9051330089569	11.05331
13.9207630157471	11.12239
13.9363830089569	11.12988
13.9520130157471	10.9301
13.9676330089569	10.43756
13.9832630157471	9.658796
13.9988830089569	8.648905
14.0145130157471	7.450679
14.0301430225372	6.094129
14.0457630157471	4.563695
14.0613930225372	2.865348
14.0770130157471	1.00128
14.0926430225372	-0.9712667
14.1082630157471	-3.021075
14.1238930225372	-5.09812
14.1395230293274	-7.180151
14.1551430225372	-9.292079
14.1707730293274	-11.45484
14.1863930225372	-13.7161
14.2020230293274	-16.05131
14.2176430225372	-18.3263
14.2332730293274	-20.24454
14.2489030361176	-21.39217
14.2645230293274	-21.29231
14.2801530361176	-19.56754
14.2957730293274	-16.1216
14.3114030361176	-11.19956
14.3270230293274	-5.370471
14.3426530361176	0.6471324
14.3582830429077	6.200635
14.3739030361176	10.86987
14.3895330429077	14.47961
14.4051530361176	17.04117
14.4207830429077	18.60902
14.4364030361176	19.21791
14.4520330429077	18.91694
14.4676630496979	17.83755
14.4832830429077	16.2643
14.4989130496979	14.61309
14.5145330429077	13.29657
14.5301630496979	12.58582
14.5457830429077	12.50874
14.5614130496979	12.85177
14.577043056488	13.25779
14.5926630496979	13.41058
14.608293056488	13.09778
14.6239130496979	12.28179
14.639543056488	11.03917
14.6551630496979	9.471674
14.670793056488	7.627462
14.6864230632782	5.511199
14.702043056488	3.11999
14.7176730632782	0.5053234
14.733293056488	-2.197878
14.7489230632782	-4.798009
14.764543056488	-7.116905
14.7801730632782	-9.060794
14.7958030700684	-10.66904
14.8114230632782	-12.11972
14.8270530700684	-13.64515
14.8426730632782	-15.48178
14.8583030700684	-17.76432
14.8739230632782	-20.46878
14.8895530700684	-23.34088
14.9051830768585	-25.88589
14.9208030700684	-27.45248
14.9364330768585	-27.3844
14.9520530700684	-25.27475
14.9676830768585	-21.12307
14.9833030700684	-15.40308
14.9989330768585	-8.910689
15.0145630836487	-2.533319
15.0301830768585	3.006885
15.0458130836487	7.322224
15.0614330768585	10.34075
15.0770630836487	12.22036
15.0926830768585	13.21025
15.1083130836487	13.54723
15.1239430904388	13.40547
15.1395630836487	12.94912
15.1551930904388	12.34724
15.1708130836487	11.76908
15.1864430904388	11.36204
15.2020630836487	11.15692
15.2176930904388	11.06083
15.233323097229	10.87724
15.2489430904388	10.39136
15.264573097229	9.475282
15.2801930904388	8.179407
15.295823097229	6.696611
15.3114430904388	5.243277
15.327073097229	3.966702
15.3427031040192	2.821073
15.358323097229	1.62444
15.3739531040192	0.1605082
15.389573097229	-1.679918
15.4052031040192	-3.855178
15.420823097229	-6.179446
15.4364531040192	-8.438517
15.4520831108093	-10.50125
15.4677031040192	-12.33181
15.4833331108093	-14.00737
15.4989531040192	-15.63645
15.5145831108093	-17.33895
15.5302031040192	-19.20297
15.5458331108093	-21.24434
15.5614628791809	-23.35913
15.5770831108093	-25.27972
15.5927128791809	-26.54999
15.6083331108093	-26.6085
15.6239628791809	-24.97491
15.6395831108093	-21.4326
15.6552128791809	-16.1749
15.6708428859711	-9.784667
15.6864628791809	-3.058266
15.7020928859711	3.224871
15.7177128791809	8.50823
15.7333428859711	12.54966
15.7489628791809	15.3742
15.7645928859711	17.12376
15.7802228927612	17.97093
15.7958428859711	18.04683
15.8114728927612	17.4871
15.8270928859711	16.49821
15.8427228927612	15.37852
15.8583428859711	14.44354
15.8739728927612	13.93332
15.8896028995514	13.90577
15.9052228927612	14.17172
15.9208528995514	14.3914
15.9364728927612	14.19091
15.9521028995514	13.30974
15.9677228927612	11.70319
15.9833528995514	9.522604
15.9989829063416	6.99708
16.0146028995514	4.302696
16.0302329063416	1.453463
16.0458528995514	-1.694324
16.0614829063416	-5.325588
16.0771028995514	-9.554829
16.0927329063416	-14.27802
16.1083629131317	-19.17789
16.1239829063416	-23.79506
16.1396129131317	-27.67861
16.1552329063416	-30.51735
16.1708629131317	-32.20627
16.1864829063416	-32.84261
16.2021129131317	-32.65348
16.2177429199219	-31.91025
16.2333629131317	-30.85519
16.2489929199219	-29.62991
16.2646129131317	-28.22786
16.2802429199219	-26.46466
16.295872926712	-24.01401
16.3114929199219	-20.46561
16.327122926712	-15.46925
16.3427429199219	-8.821014
16.358372926712	-0.5902061
16.3739929199219	8.869335
16.389622926712	18.98629
16.4052529335022	29.08587
16.420872926712	38.54577
16.4365029335022	46.88602
16.452122926712	53.78346
16.4677529335022	59.05877
16.483372926712	62.63289
16.4990029335022	64.49088
16.5146329402924	64.70792
16.5302529335022	63.47514
16.5458829402924	61.1046
16.5615029335022	58.02866
16.5771329402924	54.70747
16.5927529335022	51.55514
16.6083829402924	48.85749
16.6240129470825	46.72844
16.6396329402924	45.1162
16.6552629470825	43.8248
16.6708829402924	42.56725
16.6865129470825	41.02613
16.7021329402924	38.94083
16.7177629470825	36.18552
16.7333929538727	32.8058
16.7490129470825	29.01269
16.7646429538727	25.10679
16.7802629470825	21.36618
16.7958929538727	17.91545
16.8115129470825	14.60319
16.8271429538727	10.98777
16.8427729606628	6.403067
16.8583929538727	0.1186237
16.8740229606628	-8.403166
16.8896429538727	-19.28398
16.9052729606628	-32.11468
16.9208929538727	-45.99736
16.9365229606628	-59.73027
16.952152967453	-72.13046
16.9677729606628	-82.25787
16.983402967453	-89.52596
16.9990229606628	-93.65872
17.014652967453	-94.62072
17.0302729606628	-92.53305
17.045902967453	-87.72399
17.0615329742432	-80.78214
17.077152967453	-72.53949
17.0927829742432	-63.90836
17.108402967453	-55.64572
17.1240329742432	-48.13615
17.139652967453	-41.28762
17.1552829742432	-34.73967
17.1709129810333	-28.1082
17.1865329742432	-21.27431
17.2021629810333	-14.44702
17.2177829742432	-8.050195
17.2334129810333	-2.506755
17.2490329742432	1.969338
17.2646629810333	5.411957
17.2802929878235	8.041199
17.2959129810333	10.09113
17.3115429878235	11.72247
17.3271629810333	12.97142
17.3427929878235	13.8147
17.3584129810333	14.24005
17.3740429878235	14.2922
17.3896729946136	14.03788
17.4052929878235	13.52528
17.4209229946136	12.73127
17.4365429878235	11.55621
17.4521729946136	9.908815
17.4677929878235	7.791748
17.4834229946136	5.37901
17.4990530014038	3.004969
17.5146729946136	1.083608
17.5303030014038	-0.003432274
17.5459229946136	-0.02529144
17.5615530014038	1.076139
17.5771729946136	3.177661
17.5928030014038	6.070397
17.608433008194	9.451799
17.6240530014038	12.96274
17.639683008194	16.18573
17.6553030014038	18.6716
17.670933008194	20.01441
17.6865530014038	19.88874
17.702183008194	18.13045
17.7178130149841	14.74835
17.733433008194	9.976536
17.7490630149841	4.250401
17.764683008194	-1.798698
17.7803130149841	-7.389729
17.795933008194	-11.77126
17.8115630149841	-14.32479
17.8271930217743	-14.74571
17.8428130149841	-13.08467
17.8584430217743	-9.732098
17.8740630149841	-5.27569
17.8896930217743	-0.3770828
17.9053130149841	4.377953
17.9209430217743	8.565907
17.9365730285645	11.93002
17.9521930217743	14.39381
17.9678230285645	15.98648
17.9834430217743	16.8208
17.9990730285645	17.0281
18.0146930217743	16.75414
18.0303230285645	16.17059
18.0459530353546	15.51429
18.0615730285645	15.04791
18.0772030353546	14.9923
18.0928230285645	15.43571
18.1084530353546	16.2556
18.1240730285645	17.16149
18.1397030353546	17.81161
18.1553330421448	17.96515
18.1709530353546	17.56443
18.1865830421448	16.73461
18.2022030353546	15.66947
18.2178330421448	14.51743
18.2334530353546	13.31373
18.2490830421448	11.97986
18.2647130489349	10.41327
18.2803330421448	8.552521
18.2959630489349	6.43512
18.3115830421448	4.173676
18.3272130489349	1.917397
18.3428330421448	-0.2065125
18.3584630489349	-2.105087
18.3740930557251	-3.764149
18.3897130489349	-5.259083
18.4053430557251	-6.709412
18.4209630489349	-8.270267
18.4365930557251	-10.07733
18.4522230625153	-12.21986
18.4678430557251	-14.70584
18.4834730625153	-17.47163
18.4990930557251	-20.31065
18.5147230625153	-22.8586
18.5303430557251	-24.62682
18.5459730625153	-25.07208
18.5616030693054	-23.79008
18.5772230625153	-20.65785
18.5928530693054	-15.91496
18.6084730625153	-10.08953
18.6241030693054	-3.904678
18.6397230625153	1.965557
18.6553530693054	7.007383
18.6709830760956	10.94514
18.6866030693054	13.71688
18.7022330760956	15.40613
18.7178530693054	16.18168
18.7334830760956	16.2675
18.7491030693054	15.91098
18.7647330760956	15.35723
18.7803630828857	14.82015
18.7959830760956	14.4656
18.8116130828857	14.36913
18.8272330760956	14.5497
18.8428630828857	14.91279
18.8584830760956	15.30367
18.8741130828857	15.51937
18.8897430896759	15.38846
18.9053630828857	14.8276
18.9209930896759	13.87947
18.9366130828857	12.67838
18.9522430896759	11.37718
18.9678630828857	10.08029
18.9834930896759	8.76779
18.9991230964661	7.315708
19.0147430896759	5.561329
19.0303730964661	3.402515
19.0459930896759	0.8867168
19.0616230964661	-1.808098
19.0772430896759	-4.39146
19.0928730964661	-6.604683
19.1085031032562	-8.290379
19.1241230964661	-9.493344
19.1397531032562	-10.41091
19.1553730964661	-11.3474
19.1710031032562	-12.61328
19.1866230964661	-14.44405
19.2022531032562	-16.93625
19.2178831100464	-20.01889
19.2335031032562	-23.40305
19.2491331100464	-26.5712
19.2647531032562	-28.84235
19.2803831100464	-29.52222
19.2960031032562	-28.12553
19.3116331100464	-24.56974
19.327262878418	-19.21456
19.3428831100464	-12.78142
19.358512878418	-6.124716
19.3741331100464	0.003403664
19.389762878418	5.144001
19.4053831100464	9.132751
19.421012878418	12.03061
19.4366428852081	13.9645
19.452262878418	15.03676
19.4678928852081	15.3312
19.483512878418	14.97691
19.4991428852081	14.19101
19.514762878418	13.28038
19.5303928852081	12.55275
19.5460228919983	12.20691
19.5616428852081	12.23835
19.5772728919983	12.46252
19.5928928852081	12.61261
19.6085228919983	12.4496
19.6241428852081	11.87698
19.6397728919983	10.94955
19.6554028987885	9.823646
19.6710228919983	8.653374
19.6866528987885	7.524508
19.7022728919983	6.439853
19.7179028987885	5.316121
19.7335228919983	4.036646
19.7491528987885	2.48722
19.7647829055786	0.5870934
19.7804028987885	-1.65292
19.7960329055786	-4.115535
19.8116528987885	-6.596651
19.8272829055786	-8.884012
19.8429028987885	-10.82883
19.8585329055786	-12.42471
19.8741629123688	-13.79433
19.8897829055786	-15.13553
19.9054129123688	-16.64004
19.9210329055786	-18.43416
19.9366629123688	-20.55994
19.9522829055786	-22.96694
19.9679129123688	-25.48807
19.9835429191589	-27.79059
19.9991629123688	-29.40158
20.0147929191589	-29.74877
20.0304129123688	-28.36188
20.0460429191589	-25.05629
20.0616629123688	-20.05939
20.0772929191589	-13.98152
20.0929229259491	-7.61016
20.1085429191589	-1.659948
20.1241729259491	3.402047
20.1397929191589	7.389099
20.1554229259491	10.33095
20.1710429191589	12.33084
20.1866729259491	13.49958
20.2023029327393	13.97079
20.2179229259491	13.9454
20.2335529327393	13.67313
20.2491729259491	13.4303
20.2648029327393	13.40445
20.2804229259491	13.6392
20.2960529327393	14.02782
20.3116829395294	14.38588
20.3273029327393	14.55725
20.3429329395294	14.46371
20.3585529327393	14.11433
20.3741829395294	13.54505
20.3898029327393	12.76698
20.4054329395294	11.78252
20.4210629463196	10.56885
20.4366829395294	9.128654
20.4523129463196	7.453462
20.4679329395294	5.554482
20.4835629463196	3.441846
20.4991829395294	1.143959
20.5148129463196	-1.282843
20.5304429531097	-3.726253
20.5460629463196	-6.045066
20.5616929531097	-8.139449
20.5773129463196	-9.973004
20.5929429531097	-11.59709
20.6085629463196	-13.09843
20.6241929531097	-14.58678
20.6398229598999	-16.1492
20.6554429531097	-17.886
20.6710729598999	-19.88186
20.6866929531097	-22.16875
20.7023229598999	-24.64403
20.7179429531097	-26.96648
20.7335729598999	-28.57057
20.7492029666901	-28.79404
20.7648229598999	-27.12502
20.7804529666901	-23.41389
20.7960729598999	-17.98598
20.8117029666901	-11.54751
20.8273229598999	-4.928828
20.8429529666901	1.143259
20.8585829734802	6.237553
20.8742029666901	10.25062
20.8898329734802	13.24413
20.9054529666901	15.33828
20.9210829734802	16.61794
20.9367029666901	17.16931
20.9523329734802	17.10657
20.9679629802704	16.65438
20.9835829734802	16.09109
20.9992129802704	15.68584
21.0148329734802	15.61328
21.0304629802704	15.88473
21.0460829734802	16.3715
21.0617129802704	16.85538
21.0773429870605	17.10015
21.0929629802704	16.91539
21.1085929870605	16.2409
21.1242129802704	15.14875
21.1398429870605	13.82738
21.1554729938507	12.49674
21.1710929870605	11.2725
21.1867229938507	10.10239
21.2023429870605	8.789827
21.2179729938507	7.078595
21.2335929870605	4.823089
21.2492229938507	2.096835
21.2648530006409	-0.83601
21.2804729938507	-3.635543
21.2961030006409	-6.053647
21.3117229938507	-8.038802
21.3273530006409	-9.734097
21.3429729938507	-11.3379
21.3586030006409	-13.01756
21.374233007431	-14.82627
21.3898530006409	-16.73883
21.405483007431	-18.72219
21.4211030006409	-20.79222
21.436733007431	-22.99831
21.4523530006409	-25.29619
21.467983007431	-27.45671
21.4836130142212	-29.02065
21.499233007431	-29.4034
21.5148630142212	-28.07228
21.530483007431	-24.79734
21.5461130142212	-19.76702
21.561733007431	-13.54309
21.5773630142212	-6.901566
21.5929930210114	-0.5607654
21.6086130142212	4.974422
21.6242430210114	9.473846
21.6398630142212	12.91115
21.6554930210114	15.36516
21.6711130142212	16.91979
21.6867430210114	17.65036
21.7023730278015	17.68892
21.7179930210114	17.22296
21.7336230278015	16.56525
21.7492430210114	16.05406
21.7648730278015	15.95423
21.7804930210114	16.34227
21.7961230278015	17.0439
21.8117530345917	17.72155
21.8273730278015	17.98516
21.8430030345917	17.60203
21.8586230278015	16.56908
21.8742530345917	15.12504
21.8898730278015	13.58438
21.9055030345917	12.17768
21.9211330413818	10.95103
21.9367530345917	9.741417
21.9523830413818	8.3366
21.9680030345917	6.571996
21.9836330413818	4.454282
21.9992530345917	2.084545
22.0148830413818	-0.3671334
22.030513048172	-2.772643
22.0461330413818	-5.051803
22.061763048172	-7.141518
22.0773830413818	-8.999828
22.093013048172	-10.60156
22.1086330413818	-12.00591
22.124263048172	-13.36518
22.1398930549622	-14.917
22.155513048172	-16.86803
22.1711430549622	-19.24742
22.186763048172	-21.84482
22.2023930549622	-24.182
22.218013048172	-25.64954
22.2336430549622	-25.65345
22.2492730617523	-23.83681
22.2648930549622	-20.17245
22.2805230617523	-14.98541
22.2961430549622	-8.879061
22.3117730617523	-2.547347
22.3273930549622	3.355867
22.3430230617523	8.366023
22.3586530685425	12.23551
22.3742730617523	14.90282
22.3899030685425	16.44317
22.4055230617523	16.96852
22.4211530685425	16.64802
22.4367730617523	15.69332
22.4524030685425	14.39346
22.4680330753326	13.09705
22.4836530685425	12.14956
22.4992830753326	11.78879
22.5149030685425	12.03417
22.5305330753326	12.67049
22.5461530685425	13.34352
22.5617830753326	13.68077
22.5774130821228	13.44758
22.5930330753326	12.63098
22.6086630821228	11.4143
22.6242830753326	10.06175
22.6399130821228	8.777069
22.6555330753326	7.571749
22.6711630821228	6.284737
22.686793088913	4.693999
22.7024130821228	2.635514
22.718043088913	0.1083159
22.7336630821228	-2.709548
22.749293088913	-5.550359
22.7649130821228	-8.168356
22.780543088913	-10.42515
22.7961730957031	-12.31515
22.811793088913	-13.93847
22.8274230957031	-15.45229
22.843043088913	-17.01397
22.8586730957031	-18.74936
22.874293088913	-20.73173
22.8899230957031	-22.90293
22.9055531024933	-25.04355
22.9211730957031	-26.73779
22.9368031024933	-27.44711
22.9524230957031	-26.66581
22.9680531024933	-24.10492
22.9836730957031	-19.85278
22.9993031024933	-14.35536
23.0149331092834	-8.301127
23.0305531024933	-2.39038
23.0461831092834	2.861555
23.0618031024933	7.201428
23.0774331092834	10.60616
23.0930531024933	13.13903
23.1086831092834	14.87569
23.124312877655	15.83345
23.1399331092834	16.05031
23.155562877655	15.65156
23.1711831092834	14.88068
23.186812877655	14.08537
23.2024331092834	13.59269
23.218062877655	13.59223
23.2336928844452	14.0458
23.249312877655	14.71683
23.2649428844452	15.26188
23.280562877655	15.38321
23.2961928844452	14.95702
23.3118228912354	14.03566
23.3274428844452	12.80448
23.3430728912354	11.46021
23.3586928844452	10.09821
23.3743228912354	8.67712
23.3899428844452	7.059643
23.4055728912354	5.096369
23.4212028980255	2.715838
23.4368228912354	-0.0005674362
23.4524528980255	-2.858993
23.4680728912354	-5.61803
23.4837028980255	-8.077448
23.4993228912354	-10.15729
23.5149528980255	-11.92379
23.5305829048157	-13.53918
23.5462028980255	-15.22205
23.5618329048157	-17.15735
23.5774528980255	-19.42213
23.5930829048157	-21.99484
23.6087028980255	-24.68951
23.6243329048157	-27.17299
23.6399629116058	-28.97047
23.6555829048157	-29.55347
23.6712129116058	-28.46807
23.6868329048157	-25.46922
23.7024629116058	-20.66452
23.7180829048157	-14.48588
23.7337129116058	-7.633291
23.749342918396	-0.8562174
23.7649629116058	5.233675
23.780592918396	10.25063
23.7962129116058	14.04922
23.811842918396	16.6437
23.8274629116058	18.12388
23.843092918396	18.62652
23.8587229251862	18.34539
23.874342918396	17.55225
23.8899729251862	16.60137
23.905592918396	15.85337
23.9212229251862	15.56216
23.936842918396	15.78653
23.9524729251862	16.36937
23.9681029319763	16.99103
23.9837229251862	17.30562
23.9993529319763	17.06074
24.0149729251862	16.19223
24.0306029319763	14.81976
24.0462229251862	13.18333
24.0618529319763	11.50011
24.0774829387665	9.884476
24.0931029319763	8.301756
24.1087329387665	6.59911
24.1243529319763	4.630184
24.1399829387665	2.348499
24.1556029319763	-0.1454773
24.1712329387665	-2.646526
24.1868629455566	-4.932814
24.2024829387665	-6.885685
24.2181129455566	-8.528271
24.2337329387665	-10.01184
24.2493629455566	-11.56683
24.2649829387665	-13.40099
24.2806129455566	-15.66034
24.2962429523468	-18.38313
24.3118629455566	-21.46791
24.3274929523468	-24.6136
24.3431129455566	-27.30774
24.3587429523468	-28.89974
24.3743629455566	-28.76304
24.3899929523468	-26.544
24.405622959137	-22.30286
24.4212429523468	-16.54343
24.436872959137	-10.02836
24.4524929523468	-3.559885
24.468122959137	2.271633
24.4837429523468	7.159723
24.499372959137	11.05435
24.5150029659271	14.02643
24.530622959137	16.14027
24.5462529659271	17.42779
24.561872959137	17.92821
24.5775029659271	17.7462
24.593122959137	17.1034
24.6087529659271	16.28698
24.6243829727173	15.59952
24.6400029659271	15.24967
24.6556329727173	15.30642
24.6712529659271	15.67569
24.6868829727173	16.15042
24.7025029659271	16.47811
24.7181329727173	16.45893
24.7337629795074	15.9815
24.7493829727173	15.03982
24.7650129795074	13.72273
24.7806329727173	12.135
24.7962629795074	10.36519
24.8118829727173	8.43923
24.8275129795074	6.320408
24.8431429862976	3.954248
24.8587629795074	1.334982
24.8743929862976	-1.442123
24.8900129795074	-4.190243
24.9056429862976	-6.65678
24.9212629795074	-8.662008
24.9368929862976	-10.15533
24.9525229930878	-11.27593
24.9681429862976	-12.31249
24.9837729930878	-13.61206
24.9993929862976	-15.44421
25.0150229930878	-17.92214
25.0306429862976	-20.92787
25.0462729930878	-24.09677
25.0619029998779	-26.88737
25.0775229930878	-28.6488
25.0931529998779	-28.77925
25.1087729930878	-26.88653
25.1244029998779	-22.94993
25.1400229930878	-17.33827
25.1556529998779	-10.75072
25.1712830066681	-4.002728
25.1869029998779	2.207506
25.2025330066681	7.423702
25.2181529998779	11.48654
25.2337830066681	14.42225
25.2494029998779	16.3371
25.2650330066681	17.3613
25.2806630134583	17.63154
25.2962830066681	17.36238
25.3119130134583	16.80571
25.3275330066681	16.2538
25.3431630134583	15.91325
25.3587830066681	15.85472
25.3744130134583	15.98725
25.3900430202484	16.12056
25.4056630134583	16.0629
25.4212930202484	15.68159
25.4369130134583	14.97336
25.4525430202484	14.02143
25.4681630134583	12.99238
25.4837930202484	12.01125
25.4994230270386	11.11325
25.5150430202484	10.19891
25.5306730270386	9.065804
25.5462930202484	7.497505
25.5619230270386	5.358364
25.5775530338287	2.715406
25.5931730270386	-0.1978722
25.6088030338287	-3.037626
25.6244230270386	-5.524658
25.6400530338287	-7.535307
25.6556730270386	-9.12393
25.6713030338287	-10.48927
25.6869330406189	-11.86918
25.7025530338287	-13.47514
25.7181830406189	-15.43345
25.7338030338287	-17.78604
25.7494330406189	-20.4064
25.7650530338287	-22.98669
25.7806830406189	-25.03646
25.7963130474091	-25.94215
25.8119330406189	-25.21162
25.8275630474091	-22.63245
25.8431830406189	-18.38454
25.8588130474091	-12.97636
25.8744330406189	-7.105164
25.8900630474091	-1.393572
25.9056930541992	3.72097
25.9213130474091	8.039549
25.9369430541992	11.51697
25.9525630474091	14.12878
25.9681930541992	15.86649
25.9838130474091	16.7267
25.9994430541992	16.78478
26.0150730609894	16.22396
26.0306930541992	15.34665
26.0463230609894	14.47663
26.0619430541992	13.88719
26.0775730609894	13.73079
26.0931930541992	13.95973
26.1088230609894	14.39764
26.1244530677795	14.77988
26.1400730609894	14.85295
26.1557030677795	14.4782
26.1713230609894	13.66824
26.1869530677795	12.54427
26.2025730609894	11.25412
26.2182030677795	9.895197
26.2338330745697	8.425205
26.2494530677795	6.729172
26.2650830745697	4.677917
26.2807030677795	2.243614
26.2963330745697	-0.4452896
26.3119530677795	-3.152184
26.3275830745697	-5.633528
26.3432130813599	-7.734032
26.3588330745697	-9.434237
26.3744630813599	-10.85477
26.3900830745697	-12.16853
26.4057130813599	-13.56886
26.4213330745697	-15.184
26.4369630813599	-17.08016
26.45259308815	-19.24499
26.4682130813599	-21.55629
26.48384308815	-23.71156
26.4994630813599	-25.27213
26.51509308815	-25.74142
26.5307130813599	-24.68608
26.54634308815	-21.92064
26.5619730949402	-17.58806
26.57759308815	-12.12795
26.5932230949402	-6.154734
26.60884308815	-0.2608757
26.6244730949402	5.124928
26.64009308815	9.774178
26.6557230949402	13.5989
26.6713531017303	16.60379
26.6869730949402	18.80463
26.7026031017303	20.20673
26.7182230949402	20.84055
26.7338531017303	20.80872
26.7494730949402	20.32611
26.7651031017303	19.6703
26.7807331085205	19.09065
26.7963531017303	18.73977
26.8119831085205	18.59218
26.8276031017303	18.47503
26.8432331085205	18.15548
26.8588531017303	17.47079
26.8744831085205	16.40607
26.8901128768921	15.1153
26.9057331085205	13.77931
26.9213628768921	12.52033
26.9369831085205	11.31979
26.9526128768921	10.03303
26.9682331085205	8.46032
26.9838628768921	6.508431
26.9994928836823	4.250311
27.0151128768921	1.876934
27.0307428836823	-0.3707151
27.0463628768921	-2.346371
27.0619928836823	-4.05293
27.0776128768921	-5.613829
27.0932428836823	-7.211466
27.1088728904724	-8.999502
27.1244928836823	-11.06903
27.1401228904724	-13.42788
27.1557428836823	-16.05048
27.1713728904724	-18.85962
27.1869928836823	-21.72228
27.2026228904724	-24.39624
27.2182528972626	-26.50508
27.2338728904724	-27.61344
27.2495028972626	-27.32796
27.2651228904724	-25.45855
27.2807528972626	-22.11023
27.2963728904724	-17.68346
27.3120028972626	-12.75299
27.3276329040527	-7.915298
27.3432528972626	-3.647454
27.3588829040527	-0.2337751
27.3745028972626	2.195571
27.3901329040527	3.634418
27.4057528972626	4.105917
27.4213829040527	3.649805
27.4370129108429	2.335189
27.4526329040527	0.334744
27.4682629108429	-2.080274
27.4838829040527	-4.516029
27.4995129108429	-6.542252
27.5151329040527	-7.800062
27.5307629108429	-8.053044
27.5463929176331	-7.221418
27.5620129108429	-5.367062
27.5776429176331	-2.646854
27.5932629108429	0.7476978
27.6088929176331	4.609686
27.6245129108429	8.73939
27.6401429176331	12.95572
27.6557729244232	17.06985
27.6713929176331	20.8951
27.6870229244232	24.25402
27.7026429176331	26.94882
27.7182729244232	28.82236
27.7338929176331	29.81249
27.7495229244232	29.96335
27.7651529312134	29.4516
27.7807729244232	28.5239
27.7964029312134	27.33764
27.8120229244232	25.87041
27.8276529312134	23.88714
27.8432729244232	21.01326
27.8589029312134	16.91426
27.8745329380035	11.51308
27.8901529312134	5.054953
27.9057829380035	-1.883657
27.9214029312134	-8.539312
27.9370329380035	-14.1409
27.9526529312134	-18.09091
27.9682829380035	-20.05224
27.9839129447937	-20.0196
27.9995329380035	-18.25553
28.0151629447937	-15.20533
28.0307829380035	-11.41715
28.0464129447937	-7.426825
28.0620329380035	-3.692493
28.0776629447937	-0.5720577
28.0932929515839	1.714149
28.1089129447937	3.071651
28.1245429515839	3.525352
28.1401629447937	3.227745
28.1557929515839	2.461407
28.171422958374	1.562683
28.1870429515839	0.8739052
28.202672958374	0.6148033
28.2182929515839	0.8307648
28.233922958374	1.394154
28.2495429515839	2.057533
28.265172958374	2.534805
28.2808029651642	2.653107
28.296422958374	2.37756
28.3120529651642	1.781994
28.327672958374	1.013226
28.3433029651642	0.1950073
28.358922958374	-0.6635246
28.3745529651642	-1.620354
28.3901829719543	-2.811008
28.4058029651642	-4.356731
28.4214329719543	-6.31057
28.4370529651642	-8.587021
28.4526829719543	-10.97042
28.4683029651642	-13.15136
28.4839329719543	-14.84217
28.4995629787445	-15.90827
28.5151829719543	-16.41343
28.5308129787445	-16.62834
28.5464329719543	-16.94966
28.5620629787445	-17.72951
28.5776829719543	-19.16798
28.5933129787445	-21.23906
28.6089429855347	-23.64874
28.6245629787445	-25.88816
28.6401929855347	-27.36763
28.6558129787445	-27.48566
28.6714429855347	-25.83131
28.6870629787445	-22.31137
28.7026929855347	-17.22482
28.7183229923248	-11.21832
28.7339429855347	-5.107681
28.7495729923248	0.4075317
28.7651929855347	4.891853
28.7808229923248	8.240795
28.7964429855347	10.57368
28.8120729923248	12.08279
28.827702999115	12.92165
28.8433229923248	13.19155
28.858952999115	12.99745
28.8745729923248	12.53492
28.890202999115	12.08099
28.9058229923248	11.90535
28.921452999115	12.15603
28.9370830059052	12.75983
28.952702999115	13.46908
28.9683330059052	13.93774
28.983952999115	13.88616
28.9995830059052	13.2299
29.015202999115	12.1106
29.0308330059052	10.82317
29.0464630126953	9.653858
29.0620830059052	8.749855
29.0777130126953	8.038246
29.0933330059052	7.276993
29.1089630126953	6.152107
29.1245830059052	4.472282
29.1402130126953	2.234108
29.1558430194855	-0.3550987
29.1714630126953	-2.988281
29.1870930194855	-5.40052
29.2027130126953	-7.440441
29.2183430194855	-9.115059
29.2339630126953	-10.56337
29.2495930194855	-11.99903
29.2652230262756	-13.63848
29.2808430194855	-15.64004
29.2964730262756	-18.06169
29.3120930194855	-20.75505
29.3277230262756	-23.33873
29.3433430194855	-25.26272
29.3589730262756	-25.9655
29.3746030330658	-25.07761
29.3902230262756	-22.56605
29.4058530330658	-18.75117
29.4214730262756	-14.16982
29.4371030330658	-9.429947
29.4527230262756	-5.015984
29.4683530330658	-1.247196
29.483983039856	1.702381
29.4996030330658	3.746906
29.515233039856	4.84407
29.5308530330658	5.006516
29.546483039856	4.351696
29.5621030330658	3.116112
29.577733039856	1.619717
29.5933630466461	0.2204323
29.608983039856	-0.7952385
29.6246130466461	-1.248569
29.640233039856	-1.114429
29.6558630466461	-0.5059166
29.671483039856	0.3405876
29.6871130466461	1.119625
29.7027430534363	1.579613
29.7183630466461	1.593487
29.7339930534363	1.21196
29.7496130466461	0.6103325
29.7652430534363	-0.0001182556
29.7808630466461	-0.486084
29.7964930534363	-0.8537254
29.8121230602264	-1.227009
29.8277430534363	-1.77808
29.8433730602264	-2.608852
29.8589930534363	-3.709263
29.8746230602264	-4.968468
29.8902430534363	-6.24733
29.9058730602264	-7.455254
29.9215030670166	-8.56551
29.9371230602264	-9.626892
29.9527530670166	-10.70637
29.9683730602264	-11.90609
29.9840030670166	-13.3347
29.9996230602264	-15.0988
30.0152530670166	-17.23373
30.0308830738068	-19.61524
30.0465030670166	-21.8713
30.0621330738068	-23.41189
30.0777530670166	-23.56024
30.0933830738068	-21.79915
30.1090030670166	-17.97074
30.1246330738068	-12.37448
30.1402630805969	-5.6819
30.1558830738068	1.314939
30.1715130805969	7.905886
30.1871330738068	13.62065
30.2027630805969	18.2171
30.2183830738068	21.59498
30.2340130805969	23.73235
30.2496430873871	24.694
30.2652630805969	24.65351
30.2808930873871	23.92607
30.2965130805969	22.93376
30.3121430873871	22.10191
30.3277630805969	21.70859
30.3433930873871	21.82227
30.3590230941772	22.26222
30.3746430873871	22.6745
30.3902730941772	22.67575
30.4058930873871	21.95985
30.4215230941772	20.42866
30.4371531009674	18.20864
30.4527730941772	15.61548
30.4684031009674	13.02596
30.4840230941772	10.73774
30.4996531009674	8.841867
30.5152730941772	7.188854
30.5309031009674	5.487817
30.5465331077576	3.443291
30.5621531009674	0.909097
30.5777831077576	-2.034211
30.5934031009674	-5.137636
30.6090331077576	-8.083604
30.6246531009674	-10.63487
30.6402831077576	-12.69821
30.6559128761292	-14.3459
30.6715331077576	-15.75016
30.6871628761292	-17.1449
30.7027831077576	-18.74227
30.7184128761292	-20.65714
30.7340331077576	-22.86356
30.7496628761292	-25.1143
30.7652928829193	-26.93544
30.7809128761292	-27.7202
30.7965428829193	-26.89359
30.8121628761292	-24.1148
30.8277928829193	-19.46367
30.8434128761292	-13.41718
30.8590428829193	-6.717524
30.8746728897095	-0.1432009
30.8902928829193	5.717793
30.9059228897095	10.56478
30.9215428829193	14.33591
30.9371728897095	17.09503
30.9527928829193	18.91982
30.9684228897095	19.86455
30.9840528964996	20.00912
30.9996728897095	19.5485
31.0153028964996	18.78366
31.0309228897095	18.09505
31.0465528964996	17.8086
31.0621728897095	18.0676
31.0778028964996	18.75314
31.0934329032898	19.53854
31.1090528964996	20.02936
31.1246829032898	19.93301
31.1403028964996	19.18852
31.1559329032898	17.97465
31.1715528964996	16.58828
31.1871829032898	15.29017
31.20281291008	14.14011
31.2184329032898	13.00634
31.23406291008	11.63082
31.2496829032898	9.795847
31.26531291008	7.44315
31.2809329032898	4.71455
31.29656291008	1.872406
31.3121929168701	-0.8112526
31.32781291008	-3.163403
31.3434429168701	-5.134941
31.35906291008	-6.780535
31.3746929168701	-8.23373
31.39031291008	-9.66803
31.4059429168701	-11.28033
31.4215729236603	-13.24692
31.4371929168701	-15.62676
31.4528229236603	-18.29428
31.4684429168701	-20.88503
31.4840729236603	-22.84445
31.4996929168701	-23.56493
31.5153229236603	-22.59894
31.5309529304504	-19.81716
31.5465729236603	-15.45498
31.5622029304504	-10.04713
31.5778229236603	-4.234821
31.5934529304504	1.385935
31.6090729236603	6.381021
31.6247029304504	10.47995
31.6403329372406	13.5105
31.6559529304504	15.37475
31.6715829372406	16.07018
31.6872029304504	15.71842
31.7028329372406	14.62352
31.7184529304504	13.22843
31.7340829372406	11.99808
31.7497129440308	11.26
31.7653329372406	11.11885
31.7809629440308	11.44379
31.7965829372406	11.95877
31.8122129440308	12.42049
31.8278329372406	12.66415
31.8434629440308	12.65424
31.8590929508209	12.40583
31.8747129440308	11.90835
31.8903429508209	11.08714
31.9059629440308	9.845909
31.9215929508209	8.119263
31.9372129440308	5.944685
31.9528429508209	3.498068
31.9684729576111	0.9953327
31.9840929508209	-1.371151
31.9997229576111	-3.494085
32.0153429508209	-5.37117
32.0309729576111	-7.061667
32.0465929508209	-8.624894
32.0622229576111	-10.10965
32.0778529644012	-11.55915
32.0934729576111	-13.03786
32.1091029644012	-14.65792
32.1247229576111	-16.52558
32.1403529644012	-18.62702
32.1559729576111	-20.72937
32.1716029644012	-22.35973
32.1872329711914	-22.90708
32.2028529644012	-21.83726
32.2184829711914	-18.90423
32.2341029644012	-14.27816
32.2497329711914	-8.540443
32.2653529644012	-2.490357
32.2809829711914	3.094076
32.2966129779816	7.640088
32.3122329711914	10.89692
32.3278629779816	12.90111
32.3434829711914	13.86025
32.3591129779816	14.01715
32.3747329711914	13.61267
32.3903629779816	12.83801
32.4059929847717	11.89576
32.4216129779816	10.99776
32.4372429847717	10.35942
32.4528629779816	10.1237
32.4684929847717	10.29414
32.4841129779816	10.71351
32.4997429847717	11.1097
32.5153729915619	11.26049
32.5309929847717	11.03806
32.5466229915619	10.46785
32.5622429847717	9.661007
32.5778729915619	8.691606
32.5935029983521	7.557741
32.6091229915619	6.178937
32.6247529983521	4.494905
32.6403729915619	2.506445
32.6560029983521	0.3583546
32.6716229915619	-1.761086
32.6872529983521	-3.673503
32.7028830051422	-5.301738
32.7185029983521	-6.683244
32.7341330051422	-7.936042
32.7497529983521	-9.19961
32.7653830051422	-10.59928
32.7810029983521	-12.22425
32.7966330051422	-14.083
32.8122630119324	-16.08361
32.8278830051422	-17.98307
32.8435130119324	-19.37598
32.8591330051422	-19.7751
32.8747630119324	-18.73089
32.8903830051422	-15.98786
32.9060130119324	-11.64792
32.9216430187225	-6.198712
32.9372630119324	-0.3460355
32.9528930187225	5.170627
32.9685130119324	9.773209
32.9841430187225	13.15773
32.9997630119324	15.27845
33.0153930187225	16.23579
33.0310230255127	16.19468
33.0466430187225	15.32517
33.0622730255127	13.825
33.0778930187225	11.93904
33.0935230255127	9.954975
33.1091430187225	8.150473
33.1247730255127	6.718419
33.1404030323029	5.731836
33.1560230255127	5.100703
33.1716530323029	4.667731
33.1872730255127	4.207824
33.2029030323029	3.521223
33.2185230255127	2.500344
33.2341530323029	1.161244
33.249783039093	-0.3469827
33.2654030323029	-1.813629
33.281033039093	-3.101285
33.2966530323029	-4.233263
33.312283039093	-5.373629
33.3279030323029	-6.734034
33.343533039093	-8.438342
33.3591630458832	-10.42246
33.374783039093	-12.48711
33.3904130458832	-14.39902
33.406033039093	-16.04788
33.4216630458832	-17.52024
33.437283039093	-19.04975
33.4529130458832	-20.85941
33.4685430526733	-23.02048
33.4841630458832	-25.35163
33.4997930526733	-27.41138
33.5154130458832	-28.62999
33.5310430526733	-28.46253
33.5466630458832	-26.55399
33.5622930526733	-22.85975
33.5779230594635	-17.68199
33.5935430526733	-11.58855
33.6091730594635	-5.253269
33.6247930526733	0.7122304
33.6404230594635	5.918221
33.6560430526733	10.15456
33.6716730594635	13.38678
33.6873030662537	15.65101
33.7029230594635	17.00068
33.7185530662537	17.51744
33.7341730594635	17.3633
33.7498030662537	16.76389
33.7654230594635	15.99934
33.7810530662537	15.33228
33.7966830730438	14.91214
33.8123030662537	14.74118
33.8279330730438	14.72041
33.8435530662537	14.66481
33.8591830730438	14.39972
33.8748030662537	13.81297
33.8904330730438	12.86223
33.906063079834	11.55434
33.9216830730438	9.92541
33.937313079834	7.986338
33.9529330730438	5.742045
33.968563079834	3.204757
33.9841830730438	0.410058
33.999813079834	-2.529652
34.0154430866241	-5.456689
34.031063079834	-8.193027
34.0466930866241	-10.61669
34.062313079834	-12.7115
34.0779430866241	-14.5941
34.093563079834	-16.47433
34.1091930866241	-18.55148
34.1248230934143	-20.93051
34.1404430866241	-23.50441
34.1560730934143	-25.96502
34.1716930866241	-27.83694
34.1873230934143	-28.596
34.2029430866241	-27.80792
34.2185730934143	-25.26051
34.2342031002045	-21.03595
34.2498230934143	-15.51803
34.2654531002045	-9.310133
34.2810730934143	-3.04179
34.2967031002045	2.745499
34.3123230934143	7.69124
34.3279531002045	11.64426
34.3435831069946	14.56471
34.3592031002045	16.47987
34.3748331069946	17.45151
34.3904531002045	17.60397
34.4060831069946	17.15699
34.4217031002045	16.43505
34.4373331069946	15.75437
34.4529628753662	15.34812
34.4685831069946	15.2733
34.4842128753662	15.40674
34.4998331069946	15.54898
34.5154628753662	15.52389
34.5310831069946	15.25868
34.5467128753662	14.75368
34.5623428821564	14.06839
34.5779628753662	13.23424
34.5935928821564	12.2285
34.6092128753662	10.98702
34.6248428821564	9.422037
34.6404628753662	7.465221
34.6560928821564	5.125702
34.6717228889465	2.501858
34.6873428821564	-0.2339401
34.7029728889465	-2.888103
34.7185928821564	-5.329769
34.7342228889465	-7.518253
34.7498428821564	-9.530815
34.7654728889465	-11.53278
34.7811028957367	-13.70308
34.7967228889465	-16.15664
34.8123528957367	-18.88303
34.8279728889465	-21.65312
34.8436028957367	-24.03502
34.8592228889465	-25.44576
34.8748528957367	-25.33257
34.8904829025269	-23.36118
34.9061028957367	-19.55109
34.9217329025269	-14.30466
34.9373528957367	-8.273743
34.9529829025269	-2.166523
34.9686028957367	3.466625
34.9842329025269	8.303703
34.999862909317	12.23196
35.0154829025269	15.24372
35.031112909317	17.37448
35.0467329025269	18.67286
35.062362909317	19.23662
35.0779829025269	19.25138
35.093612909317	18.947
35.1092429161072	18.55857
35.124862909317	18.24618
35.1404929161072	18.08014
35.156112909317	18.01513
35.1717429161072	17.95577
35.187362909317	17.76861
35.2029929161072	17.32712
35.2186229228973	16.55027
35.2342429161072	15.41952
35.2498729228973	13.98568
35.2654929161072	12.34843
35.2811229228973	10.61136
35.2967529296875	8.779648
35.3123729228973	6.793716
35.3280029296875	4.520866
35.3436229228973	1.871925
35.3592529296875	-1.104412
35.3748729228973	-4.198467
35.3905029296875	-7.125103
35.4061329364777	-9.604763
35.4217529296875	-11.51387
35.4373829364777	-12.92779
35.4530029296875	-14.07485
35.4686329364777	-15.26786
35.4842529296875	-16.81081
35.4998829364777	-18.93492
35.5155129432678	-21.72301
35.5311329364777	-25.035
35.5467629432678	-28.45385
35.5623829364777	-31.32458
35.5780129432678	-32.91097
35.5936329364777	-32.58627
35.6092629432678	-30.08507
35.624892950058	-25.59247
35.6405129432678	-19.67086
35.656142950058	-13.06047
35.6717629432678	-6.479614
35.687392950058	-0.4466896
35.7030129432678	4.721195
35.718642950058	8.860546
35.7342729568481	11.91556
35.749892950058	13.90084
35.7655229568481	14.89856
35.781142950058	15.11855
35.7967729568481	14.83696
35.812392950058	14.3739
35.8280229568481	14.02287
35.8436529636383	13.98986
35.8592729568481	14.3521
35.8749029636383	15.06076
35.8905229568481	15.95424
35.9061529636383	16.78786
35.9217729568481	17.33794
35.9374029636383	17.44101
35.9530329704285	17.05623
35.9686529636383	16.2749
35.9842829704285	15.26099
35.9999029636383	14.16135
36.0155329704285	13.04923
36.0311529636383	11.88233
36.0467829704285	10.52563
36.0624129772186	8.86528
36.0780329704285	6.828156
36.0936629772186	4.436543
36.1092829704285	1.810894
36.1249129772186	-0.9005928
36.1405329704285	-3.56147
36.1561629772186	-6.0783
36.1717929840088	-8.429466
36.1874129772186	-10.6427
36.2030429840088	-12.75434
36.2186629772186	-14.8256
36.2342929840088	-16.91975
36.2499129772186	-19.08723
36.2655429840088	-21.3322
36.281172990799	-23.55206
36.2967929840088	-25.48392
36.312422990799	-26.70576
36.3280429840088	-26.70775
36.343672990799	-25.04185
36.3592929840088	-21.50699
36.374922990799	-16.28003
36.3905529975891	-9.902901
36.406172990799	-3.170387
36.4218029975891	3.124752
36.437422990799	8.398705
36.4530529975891	12.41487
36.468672990799	15.24631
36.4843029975891	17.15671
36.4999330043793	18.41198
36.5155529975891	19.1815
36.5311830043793	19.55326
36.5468029975891	19.5581
36.5624330043793	19.25513
36.5780529975891	18.78207
36.5936830043793	18.28962
36.6093130111694	17.91677
36.6249330043793	17.70827
36.6405630111694	17.62083
36.6561830043793	17.51917
36.6718130111694	17.24669
36.6874330043793	16.64513
36.7030630111694	15.61808
36.7186930179596	14.16062
36.7343130111694	12.36182
36.7499430179596	10.38581
36.7655630111694	8.419304
36.7811930179596	6.588249
36.7968130111694	4.897186
36.8124430179596	3.264893
36.8280730247498	1.548893
36.8436930179596	-0.3448906
36.8593230247498	-2.4039
36.8749430179596	-4.527657
36.8905730247498	-6.569183
36.9061930179596	-8.416988
36.9218230247498	-10.06356
36.9374530315399	-11.59967
36.9530730247498	-13.16723
36.9687030315399	-14.88905
36.9843230247498	-16.82734
36.9999530315399	-18.96069
37.0155730247498	-21.24118
37.0312030315399	-23.55909
37.0468330383301	-25.72359
37.0624530315399	-27.44028
37.0780830383301	-28.26905
37.0937030315399	-27.71648
37.1093330383301	-25.3639
37.1249530315399	-21.05503
37.1405830383301	-14.96909
37.1562130451202	-7.687164
37.1718330383301	0.0007171631
37.1874630451202	7.295528
37.2030830383301	13.58227
37.2187130451202	18.55161
37.2343330383301	22.16669
37.2499630451202	24.56718
37.2655930519104	25.94099
37.2812130451202	26.46118
37.2968430519104	26.27359
37.3124630451202	25.56733
37.3280930519104	24.58812
37.3437130451202	23.59604
37.3593430519104	22.79151
37.3749730587006	22.22023
37.3905930519104	21.76008
37.4062230587006	21.15458
37.4218430519104	20.16781
37.4374730587006	18.6769
37.4530930519104	16.74773
37.4687230587006	14.5816
37.4843530654907	12.40634
37.4999730587006	10.38412
37.5156030654907	8.549221
37.5312230587006	6.823418
37.5468530654907	5.095173
37.5624830722809	3.269283
37.5781030654907	1.302479
37.5937330722809	-0.7981529
37.6093530654907	-2.983341
37.6249830722809	-5.207825
37.6406030654907	-7.381725
37.6562330722809	-9.434509
37.671863079071	-11.28673
37.6874830722809	-12.86567
37.703113079071	-14.16509
37.7187330722809	-15.25587
37.734363079071	-16.28954
37.7499830722809	-17.45921
37.765613079071	-18.95944
37.7812430858612	-20.87896
37.796863079071	-23.18491
37.8124930858612	-25.65812
37.828113079071	-27.87811
37.8437430858612	-29.30032
37.859363079071	-29.36325
37.8749930858612	-27.67331
37.8906230926514	-24.11012
37.9062430858612	-18.94056
37.9218730926514	-12.72832
37.9374930858612	-6.203112
37.9531230926514	-0.04182053
37.9687430858612	5.27738
37.9843730926514	9.550533
38.0000030994415	12.76091
38.0156230926514	15.00583
38.0312530994415	16.40318
38.0468730926514	17.0509
38.0625030994415	17.0769
38.0781230926514	16.65393
38.0937530994415	16.03707
38.1093831062317	15.49637
38.1250030994415	15.23363
38.1406331062317	15.32612
38.1562530994415	15.68553
38.1718831062317	16.10923
38.1875030994415	16.36448
38.2031331062317	16.27589
38.2187628746033	15.77976
38.2343831062317	14.92168
38.2500128746033	13.8124
38.2656331062317	12.53521
38.2812628746033	11.12125
38.2968831062317	9.5473
38.3125128746033	7.762276
38.3281428813934	5.75301
38.3437628746033	3.559534
38.3593928813934	1.250359
38.3750128746033	-1.084866
38.3906428813934	-3.358452
38.4062628746033	-5.515233
38.4218928813934	-7.497009
38.4375228881836	-9.26336
38.4531428813934	-10.81826
38.4687728881836	-12.23455
38.4843928813934	-13.64541
38.5000228881836	-15.22299
38.5156428813934	-17.12164
38.5312728881836	-19.38904
38.5469028949738	-21.92967
38.5625228881836	-24.47452
38.5781528949738	-26.60367
38.5937728881836	-27.80855
38.6094028949738	-27.60031
38.6250228881836	-25.65108
38.6406528949738	-21.94361
38.6562829017639	-16.81707
38.6719028949738	-10.89001
38.6875329017639	-4.851146
38.7031528949738	0.7464824
38.7187829017639	5.59471
38.7344028949738	9.615098
38.7500329017639	12.83946
38.7656629085541	15.28827
38.7812829017639	16.92462
38.7969129085541	17.73657
38.8125329017639	17.80471
38.8281629085541	17.35712
38.8437829017639	16.72838
38.8594129085541	16.21382
38.8750429153442	15.9829
38.8906629085541	16.04969
38.9062929153442	16.27466
38.9219129085541	16.46797
38.9375429153442	16.44177
38.9531629085541	16.05775
38.9687929153442	15.2355
38.9844229221344	13.98977
39.0000429153442	12.41585
39.0156729221344	10.64628
39.0312929153442	8.806598
39.0469229221344	6.949512
39.0625429153442	5.053555
39.0781729221344	3.029358
39.0938029289246	0.7602234
39.1094229221344	-1.823582
39.1250529289246	-4.679553
39.1406729221344	-7.666923
39.1563029289246	-10.57872
39.1719229221344	-13.20143
39.1875529289246	-15.41049
39.2031829357147	-17.1745
39.2188029289246	-18.58679
39.2344329357147	-19.84322
39.2500529289246	-21.16773
39.2656829357147	-22.76847
39.2813029289246	-24.75008
39.2969329357147	-27.03407
39.3125629425049	-29.32881
39.3281829357147	-31.16589
39.3438129425049	-31.98223
39.3594329357147	-31.26455
39.3750629425049	-28.7462
39.3906829357147	-24.47915
39.4063129425049	-18.863
39.421942949295	-12.52967
39.4375629425049	-6.168676
39.453192949295	-0.3526535
39.4688129425049	4.527763
39.484442949295	8.301256
39.5000629425049	10.9978
39.515692949295	12.75389
39.5313229560852	13.78008
39.546942949295	14.28974
39.5625729560852	14.48102
39.578192949295	14.53128
39.5938229560852	14.58621
39.609442949295	14.72704
39.6250729560852	14.98099
39.6407029628754	15.32357
39.6563229560852	15.67076
39.6719529628754	15.93674
39.6875729560852	16.03978
39.7032029628754	15.91526
39.7188229560852	15.53725
39.7344529628754	14.89499
39.7500829696655	13.98537
39.7657029628754	12.82051
39.7813329696655	11.41948
39.7969529628754	9.775063
39.8125829696655	7.880634
39.8282029628754	5.719679
39.8438329696655	3.273043
39.8594629764557	0.5876942
39.8750829696655	-2.195658
39.8907129764557	-4.896101
39.9063329696655	-7.301968
39.9219629764557	-9.275543
39.9375829696655	-10.83417
39.9532129764557	-12.13879
39.9688429832458	-13.45438
39.9844629764557	-15.0624
40.0000929832458	-17.15738
40.0157129764557	-19.78628
40.0313429832458	-22.8122
40.0469629764557	-25.91032
40.0625929832458	-28.5839
40.078222990036	-30.25498
40.0938429832458	-30.36346
40.109472990036	-28.52629
40.1250929832458	-24.68709
40.140722990036	-19.18889
40.1563529968262	-12.70873
40.171972990036	-6.106844
40.1876029968262	-0.1468334
40.203222990036	4.696442
40.2188529968262	8.295822
40.234472990036	10.83273
40.2501029968262	12.57575
40.2657330036163	13.72994
40.2813529968262	14.39756
40.2969830036163	14.61813
40.3126029968262	14.44574
40.3282330036163	14.04282
40.3438529968262	13.64463
40.3594830036163	13.43011
40.3751130104065	13.48879
40.3907330036163	13.72753
40.4063630104065	13.92589
40.4219830036163	13.85273
40.4376130104065	13.37336
40.4532330036163	12.49871
40.4688630104065	11.34785
40.4844930171967	10.1035
40.5001130104065	8.85995
40.5157430171967	7.617935
40.5313630104065	6.268579
40.5469930171967	4.660331
40.5626130104065	2.690499
40.5782430171967	0.3938265
40.5938730239868	-2.094149
40.6094930171967	-4.558469
40.6251230239868	-6.790116
40.6407430171967	-8.680399
40.6563730239868	-10.23521
40.6719930171967	-11.5749
40.6876230239868	-12.88928
40.703253030777	-14.39993
40.7188730239868	-16.29729
40.734503030777	-18.69075
40.7501230239868	-21.53143
40.765753030777	-24.55111
40.7813730239868	-27.27951
40.797003030777	-29.09508
40.8126330375671	-29.40184
40.828253030777	-27.8036
40.8438830375671	-24.24771
40.859503030777	-19.04033
40.8751330375671	-12.77121
40.890753030777	-6.135951
40.9063830375671	0.2325916
40.9220130443573	5.852895
40.9376330375671	10.44564
40.9532630443573	13.89911
40.9688830375671	16.21527
40.9845130443573	17.48436
41.0001330375671	17.89903
41.0157630443573	17.69977
41.0313930511475	17.16923
41.0470130443573	16.59556
41.0626430511475	16.19159
41.0782630443573	16.05881
41.0938930511475	16.16854
41.1095130443573	16.37134
41.1251430511475	16.45882
41.1407730579376	16.256
41.1563930511475	15.67477
41.1720230579376	14.72795
41.1876430511475	13.51765
41.2032730579376	12.1516
41.2188930511475	10.68816
41.2345230579376	9.121037
41.2501530647278	7.395649
41.2657730579376	5.466012
41.2814030647278	3.31122
41.2970230579376	0.9635198
41.3126530647278	-1.497918
41.3282730579376	-3.950242
41.3439030647278	-6.276207
41.3595330715179	-8.372932
41.3751530647278	-10.19666
41.3907830715179	-11.78762
41.4064030647278	-13.26273
41.4220330715179	-14.8004
41.4376530647278	-16.60485
41.4532830715179	-18.82463
41.4689130783081	-21.48952
41.4845330715179	-24.47136
41.5001630783081	-27.40113
41.5157830715179	-29.67489
41.5314130783081	-30.59508
41.5470330715179	-29.55456
41.5626630783081	-26.2554
41.5782930850983	-20.87849
41.5939130783081	-14.05173
41.6095430850983	-6.666498
41.6251630783081	0.3974581
41.6407930850983	6.510338
41.6564130783081	11.41435
41.6720430850983	15.11475
41.6876730918884	17.74007
41.7032930850983	19.42331
41.7189230918884	20.2604
41.7345430850983	20.35291
41.7501730918884	19.88663
41.7657930850983	19.14243
41.7814230918884	18.43763
41.7970530986786	18.02604
41.8126730918884	18.01703
41.8283030986786	18.35216
41.8439230918884	18.83752
41.8595530986786	19.20595
41.8751730918884	19.19815
41.8908030986786	18.63101
41.9064331054688	17.45392
41.9220530986786	15.74876
41.9376831054688	13.70362
41.9533030986786	11.53761
41.9689331054688	9.416652
41.9845530986786	7.400265
42.0001831054688	5.428555
42.0158128738403	3.388392
42.0314331054688	1.212153
42.0470628738403	-1.090392
42.0626831054688	-3.41444
42.0783128738403	-5.630026
42.0939331054688	-7.662331
42.1095628738403	-9.528263
42.1251928806305	-11.30552
42.1408128738403	-13.10389
42.1564428806305	-15.00275
42.1720628738403	-17.04831
42.1876928806305	-19.27766
42.2033128738403	-21.73349
42.2189428806305	-24.39099
42.2345728874207	-27.09225
42.2501928806305	-29.45302
42.2658228874207	-30.87663
42.2814428806305	-30.70596
42.2970728874207	-28.45962
42.3126928806305	-24.05052
42.3283228874207	-17.87322
42.3439528942108	-10.69335
42.3595728874207	-3.410824
42.3752028942108	3.238445
42.3908228874207	8.819359
42.4064528942108	13.20543
42.422082901001	16.43959
42.4377028942108	18.60019
42.453332901001	19.73557
42.4689528942108	19.9057
42.484582901001	19.27257
42.5002028942108	18.15445
42.515832901001	16.97012
42.5314629077911	16.15234
42.547082901001	15.96234
42.5627129077911	16.4225
42.578332901001	17.30633
42.5939629077911	18.24014
42.609582901001	18.81057
42.6252129077911	18.75727
42.6408429145813	18.02138
42.6564629077911	16.74299
42.6720929145813	15.17167
42.6877129077911	13.5499
42.7033429145813	11.96779
42.7189629077911	10.35409
42.7345929145813	8.540394
42.7502229213715	6.363815
42.7658429145813	3.808704
42.7814729213715	1.024759
42.7970929145813	-1.747356
42.8127229213715	-4.294161
42.8283429145813	-6.527586
42.8439729213715	-8.496996
42.8596029281616	-10.32727
42.8752229213715	-12.11
42.8908529281616	-13.88621
42.9064729213715	-15.67724
42.9221029281616	-17.54641
42.9377229213715	-19.59431
42.9533529281616	-21.88651
42.9689829349518	-24.26897
42.9846029281616	-26.32544
43.0002329349518	-27.39363
43.0158529281616	-26.79855
43.0314829349518	-24.11997
43.0471029281616	-19.4096
43.0627329349518	-13.21848
43.0783629417419	-6.403589
43.0939829349518	0.1479244
43.1096129417419	5.78097
43.1252329349518	10.18292
43.1408629417419	13.35229
43.1564829349518	15.45222
43.1721129417419	16.65248
43.1877429485321	17.09876
43.2033629417419	16.9031
43.2189929485321	16.2109
43.2346129417419	15.23735
43.2502429485321	14.27983
43.2658629417419	13.64382
43.2814929485321	13.54212
43.2971229553223	13.98733
43.3127429485321	14.76689
43.3283729553223	15.50873
43.3439929485321	15.81752
43.3596229553223	15.45138
43.3752429485321	14.39914
43.3908729553223	12.88847
43.4065029621124	11.23581
43.4221229553223	9.685728
43.4377529621124	8.302732
43.4533729553223	6.956871
43.4690029621124	5.442041
43.4846229553223	3.626175
43.5002529621124	1.533428
43.5158829689026	-0.6919079
43.5315029621124	-2.857416
43.5471329689026	-4.843651
43.5627529621124	-6.635458
43.5783829689026	-8.289099
43.5940029621124	-9.871685
43.6096329689026	-11.42469
43.6252629756927	-12.99963
43.6408829689026	-14.68801
43.6565129756927	-16.64882
43.6721329689026	-18.99932
43.6877629756927	-21.69651
43.7033829689026	-24.40676
43.7190129756927	-26.52714
43.7346429824829	-27.33134
43.7502629756927	-26.2395
43.7658929824829	-23.04897
43.7815129756927	-18.0172
43.7971429824829	-11.77531
43.8127629756927	-5.112755
43.8283929824829	1.245937
43.8440229892731	6.778378
43.8596429824829	11.18516
43.8752729892731	14.32774
43.8908929824829	16.20702
43.9065229892731	16.90653
43.9221429824829	16.62092
43.9377729892731	15.65898
43.9534029960632	14.41428
43.9690229892731	13.27547
43.9846529960632	12.56172
44.0002729892731	12.45215
44.0159029960632	12.92606
44.0315229892731	13.78269
44.0471529960632	14.66707
44.0627830028534	15.19972
44.0784029960632	15.09269
44.0940330028534	14.27884
44.1096529960632	12.94362
44.1252830028534	11.43548
44.1409029960632	10.11684
44.1565330028534	9.156628
44.1721630096436	8.460401
44.1877830028534	7.695454
44.2034130096436	6.502125
44.2190330028534	4.660255
44.2346630096436	2.220718
44.2502830028534	-0.527256
44.2659130096436	-3.208212
44.2815430164337	-5.521278
44.2971630096436	-7.371897
44.3127930164337	-8.84768
44.3284130096436	-10.1685
44.3440430164337	-11.54457
44.3596630096436	-13.13161
44.3752930164337	-14.99538
44.3909230232239	-17.11478
44.4065430164337	-19.36959
44.4221730232239	-21.49192
44.4377930164337	-23.06355
44.4534230232239	-23.54978
44.4690430164337	-22.48137
44.4846730232239	-19.60187
44.500303030014	-15.05309
44.5159230232239	-9.341951
44.531553030014	-3.225215
44.5471730232239	2.518823
44.562803030014	7.318337
44.5784330368042	10.87855
44.594053030014	13.15738
44.6096830368042	14.26195
44.625303030014	14.35019
44.6409330368042	13.5987
44.656553030014	12.23673
44.6721830368042	10.5675
44.6878130435944	8.936317
44.7034330368042	7.668961
44.7190630435944	6.965673
44.7346830368042	6.865073
44.7503130435944	7.23476
44.7659330368042	7.823194
44.7815630435944	8.3207
44.7971930503845	8.493484
44.8128130435944	8.210442
44.8284430503845	7.484142
44.8440630435944	6.433912
44.8596930503845	5.187688
44.8753130435944	3.818986
44.8909430503845	2.290437
44.9065730571747	0.4883003
44.9221930503845	-1.686537
44.9378230571747	-4.20195
44.9534430503845	-6.875857
44.9690730571747	-9.419724
44.9846930503845	-11.53951
45.0003230571747	-13.10818
45.0159530639648	-14.18917
45.0315730571747	-15.03696
45.0472030639648	-15.99202
45.0628230571747	-17.35325
45.0784530639648	-19.24488
45.0940730571747	-21.55013
45.1097030639648	-23.89157
45.125333070755	-25.67773
45.1409530639648	-26.29026
45.156583070755	-25.23244
45.1722030639648	-22.32234
45.187833070755	-17.73369
45.2034530639648	-11.97008
45.219083070755	-5.693798
45.2347130775452	0.4268491
45.250333070755	5.879909
45.2659630775452	10.36728
45.281583070755	13.75339
45.2972130775452	16.02448
45.312833070755	17.20207
45.3284630775452	17.336
45.3440930843353	16.56343
45.3597130775452	15.15491
45.3753430843353	13.51546
45.3909630775452	12.11863
45.4065930843353	11.35345
45.4222130775452	11.38712
45.4378430843353	12.07427
45.4534730911255	13.00598
45.4690930843353	13.68801
45.4847230911255	13.74487
45.5003430843353	13.05575
45.5159730911255	11.75848
45.5315930843353	10.13121
45.5472230911255	8.405556
45.5628530979156	6.676683
45.5784730911255	4.886868
45.5941030979156	2.917277
45.6097230911255	0.6881247
45.6253530979156	-1.748037
45.6409730911255	-4.234962
45.6566030979156	-6.569699
45.6722331047058	-8.613047
45.6878530979156	-10.32981
45.7034831047058	-11.81166
45.7191030979156	-13.21013
45.7347331047058	-14.6848
45.7503530979156	-16.37329
45.7659831047058	-18.35024
45.781613111496	-20.60149
45.7972331047058	-22.9884
45.812863111496	-25.18519
45.8284831047058	-26.70315
45.844113111496	-26.97897
45.8597331047058	-25.54408
45.875363111496	-22.22588
45.8909928798676	-17.2368
45.906613111496	-11.13271
45.9222428798676	-4.635084
45.937863111496	1.590019
45.9534928798676	7.094758
45.969113111496	11.66304
45.9847428798676	15.25396
46.0003728866577	17.88889
46.0159928798676	19.57397
46.0316228866577	20.31134
46.0472428798676	20.17157
46.0628728866577	19.34438
46.0784928798676	18.16534
46.0941228866577	17.02146
46.1097528934479	16.24865
46.1253728866577	16.00097
46.1410028934479	16.19402
46.1566228866577	16.55748
46.1722528934479	16.75352
46.1878728866577	16.52662
46.2035028934479	15.77241
46.219132900238	14.55094
46.2347528934479	13.01358
46.250382900238	11.30358
46.2660028934479	9.518389
46.281632900238	7.69611
46.2972528934479	5.834703
46.312882900238	3.915977
46.3285129070282	1.893528
46.344132900238	-0.2707644
46.3597629070282	-2.599344
46.375382900238	-5.030579
46.3910129070282	-7.453831
46.406632900238	-9.71466
46.4222629070282	-11.73713
46.4378929138184	-13.55226
46.4535129070282	-15.32012
46.4691429138184	-17.25382
46.4847629070282	-19.52383
46.5003929138184	-22.13509
46.5160129070282	-24.88104
46.5316429138184	-27.35109
46.5472729206085	-28.98823
46.5628929138184	-29.24079
46.5785229206085	-27.6731
46.5941429138184	-24.13454
46.6097729206085	-18.83549
46.6253929138184	-12.33545
46.6410229206085	-5.433848
46.6566529273987	1.064679
46.6722729206085	6.547812
46.6879029273987	10.73976
46.7035229206085	13.68995
46.7191529273987	15.65137
46.7347729206085	16.91247
46.7504029273987	17.66858
46.7660329341888	18.0176
46.7816529273987	17.9963
46.7972829341888	17.67637
46.8129029273987	17.19336
46.8285329341888	16.73302
46.8441529273987	16.43651
46.8597829341888	16.33613
46.875412940979	16.34395
46.8910329341888	16.28184
46.906662940979	15.97773
46.9222829341888	15.3187
46.937912940979	14.31209
46.9535329341888	13.02954
46.969162940979	11.59441
46.9847929477692	10.10311
47.000412940979	8.630031
47.0160429477692	7.158357
47.031662940979	5.61927
47.0472929477692	3.92588
47.062912940979	2.002359
47.0785429477692	-0.1401262
47.0941729545593	-2.4
47.1097929477692	-4.619561
47.1254229545593	-6.654757
47.1410429477692	-8.420462
47.1566729545593	-9.971808
47.1722929477692	-11.43589
47.1879229545593	-12.99899
47.2035529613495	-14.82007
47.2191729545593	-16.99203
47.2348029613495	-19.50079
47.2504229545593	-22.22856
47.2660529613495	-24.91304
47.2816829681396	-27.14265
47.2973029613495	-28.39496
47.3129329681396	-28.14857
47.3285529613495	-26.03602
47.3441829681396	-22.00842
47.3598029613495	-16.3985
47.3754329681396	-9.846764
47.3910629749298	-3.108354
47.4066829681396	3.153617
47.4223129749298	8.52963
47.4379329681396	12.89571
47.4535629749298	16.29464
47.4691829681396	18.82943
47.4848129749298	20.55684
47.50044298172	21.48619
47.5160629749298	21.63151
47.53169298172	21.09839
47.5473129749298	20.10754
47.56294298172	18.96432
47.5785629749298	17.9687
47.59419298172	17.30864
47.6098229885101	17.01052
47.62544298172	16.93064
47.6410729885101	16.83671
47.65669298172	16.47913
47.6723229885101	15.73107
47.68794298172	14.57446
47.7035729885101	13.11882
47.7192029953003	11.49165
47.7348229885101	9.778806
47.7504529953003	7.952053
47.7660729885101	5.924142
47.7817029953003	3.58194
47.7973229885101	0.8977146
47.8129529953003	-2.015067
47.8285830020905	-4.920297
47.8442029953003	-7.537664
47.8598330020905	-9.673183
47.8754529953003	-11.28091
47.8910830020905	-12.4898
47.9067029953003	-13.53933
47.9223330020905	-14.70267
47.9379630088806	-16.1822
47.9535830020905	-18.06051
47.9692130088806	-20.31961
47.9848330020905	-22.82256
48.0004630088806	-25.35506
48.0160830020905	-27.60641
48.0317130088806	-29.15962
48.0473430156708	-29.53811
48.0629630088806	-28.31998
48.0785930156708	-25.2882
48.0942130088806	-20.56959
48.1098430156708	-14.66827
48.1254630088806	-8.321204
48.1410930156708	-2.276198
48.1567230224609	2.915944
48.1723430156708	7.055744
48.1879730224609	10.20972
48.2035930156708	12.58403
48.2192230224609	14.34174
48.2348430156708	15.53754
48.2504730224609	16.1521
48.2661030292511	16.20008
48.2817230224609	15.80699
48.2973530292511	15.19817
48.3129730224609	14.62875
48.3286030292511	14.29071
48.3442230224609	14.23873
48.3598530292511	14.38739
48.3754830360413	14.58964
48.3911030292511	14.66405
48.4067330360413	14.47591
48.4223530292511	13.94347
48.4379830360413	13.04467
48.4536030292511	11.81051
48.4692330360413	10.30406
48.4848630428314	8.600004
48.5004830360413	6.754532
48.5161130428314	4.792582
48.5317330360413	2.730265
48.5473630428314	0.5906603
48.5629830360413	-1.582564
48.5786130428314	-3.708369
48.5942430496216	-5.689852
48.6098630428314	-7.44332
48.6254930496216	-8.92191
48.6411130428314	-10.16368
48.6567430496216	-11.27878
48.6723630428314	-12.43931
48.6879930496216	-13.81795
48.7036230564117	-15.56196
48.7192430496216	-17.71864
48.7348730564117	-20.19761
48.7504930496216	-22.72067
48.7661230564117	-24.79958
48.7817430496216	-25.83764
48.7973730564117	-25.26604
48.8130030632019	-22.75565
48.8286230564117	-18.34866
48.8442530632019	-12.52259
48.8598730564117	-6.013794
48.8755030632019	0.3666832
48.8911230564117	5.995778
48.9067530632019	10.55101
48.9223830699921	14.00904
48.9380030632019	16.51182
48.9536330699921	18.22429
48.9692530632019	19.2294
48.9848830699921	19.53176
49.0005030632019	19.18087
49.0161330699921	18.33874
49.0317630767822	17.29799
49.0473830699921	16.36924
49.0630130767822	15.77487
49.0786330699921	15.52315
49.0942630767822	15.42531
49.1098830699921	15.18292
49.1255130767822	14.55683
49.1411430835724	13.47888
49.1567630767822	12.05474
49.1723930835724	10.48341
49.1880130767822	8.924662
49.2036430835724	7.401947
49.2192630767822	5.81256
49.2348930835724	4.003279
49.2505230903625	1.851294
49.2661430835724	-0.6257687
49.2817730903625	-3.311312
49.2973930835724	-5.994844
49.3130230903625	-8.469578
49.3286430835724	-10.55459
49.3442730903625	-12.18155
49.3599030971527	-13.38718
49.3755230903625	-14.31508
49.3911530971527	-15.19589
49.4067730903625	-16.27583
49.4224030971527	-17.77492
49.4380331039429	-19.79539
49.4536530971527	-22.26653
49.4692831039429	-24.87029
49.4849030971527	-27.07019
49.5005331039429	-28.19636
49.5161530971527	-27.60919
49.5317831039429	-24.93387
49.547413110733	-20.22664
49.5630331039429	-14.00269
49.578663110733	-7.107548
49.5942831039429	-0.4433651
49.609913110733	5.294474
49.6255331039429	9.792962
49.641163110733	13.10714
49.6567928791046	15.50736
49.672413110733	17.24241
49.6880428791046	18.43629
49.703663110733	19.05174
49.7192928791046	19.02461
49.734913110733	18.42372
49.7505428791046	17.50443
49.7661728858948	16.65602
49.7817928791046	16.21699
49.7974228858948	16.30116
49.8130428791046	16.72937
49.8286728858948	17.13774
49.8442928791046	17.15378
49.8599228858948	16.56486
49.8755528926849	15.41208
49.8911728858948	13.91248
49.9068028926849	12.32324
49.9224228858948	10.79623
49.9380528926849	9.319632
49.9536728858948	7.741281
49.9693028926849	5.89999
49.9849328994751	3.73072
50.0005528926849	1.290276
50.0161828994751	-1.237775
50.0318028926849	-3.630867
50.0474328994751	-5.714027
50.0630528926849	-7.423831
50.0786828994751	-8.816635
50.0943129062653	-10.06831
50.1099328994751	-11.38583
50.1255629062653	-12.93941
50.1411828994751	-14.83369
50.1568129062653	-17.07476
50.1724328994751	-19.59516
50.1880629062653	-22.21666
50.2036929130554	-24.63682
50.2193129062653	-26.40471
50.2349429130554	-27.01591
50.2505629062653	-26.02674
50.2661929130554	-23.22111
50.2818129062653	-18.73497
50.2974429130554	-13.05346
50.3130729198456	-6.892795
50.3286929130554	-0.9793167
50.3443229198456	4.1615
50.3599429130554	8.313133
50.3755729198456	11.51687
50.3911929130554	13.91849
50.4068229198456	15.62912
50.4224529266357	16.67507
50.4380729198456	17.03436
50.4537029266357	16.74216
50.4693229198456	15.95358
50.4849529266357	14.96688
50.5005729198456	14.12629
50.5162029266357	13.70245
50.5318329334259	13.7943
50.5474529266357	14.27444
50.5630829334259	14.85288
50.5787029266357	15.19517
50.5943329334259	15.0521
50.6099529266357	14.31383
50.6255829334259	13.05468
50.6412129402161	11.45631
50.6568329334259	9.737108
50.6724629402161	8.048277
50.6880829334259	6.452957
50.7037129402161	4.892303
50.7193329334259	3.249046
50.7349629402161	1.423185
50.7505929470062	-0.616436
50.7662129402161	-2.796223
50.7818429470062	-4.991898
50.7974629402161	-7.071905
50.8130929470062	-8.976267
50.8287129402161	-10.72721
50.8443429470062	-12.41303
50.8599729537964	-14.1397
50.8755929470062	-15.9583
50.8912229537964	-17.87288
50.9068429470062	-19.86379
50.9224729537964	-21.90735
50.9380929470062	-23.97024
50.9537229537964	-25.89355
50.9693529605865	-27.33984
50.9849729537964	-27.78153
51.0006029605865	-26.66609
51.0162229537964	-23.65987
51.0318529605865	-18.83183
51.0474729537964	-12.72447
51.0631029605865	-6.15766
51.0787329673767	0.06355476
51.0943529605865	5.394924
51.1099829673767	9.649038
51.1256029605865	12.89713
51.1412329673767	15.27382
51.1568529605865	16.83712
51.1724829673767	17.57194
51.1881129741669	17.48908
51.2037329673767	16.73912
51.2193629741669	15.6482
51.2349829673767	14.63609
51.2506129741669	14.0591
51.2662329673767	14.07196
51.2818629741669	14.57302
51.297492980957	15.27729
51.3131129741669	15.84199
51.328742980957	16.0018
51.3443629741669	15.62869
51.359992980957	14.74508
51.3756129741669	13.4598
51.391242980957	11.92324
51.4068729877472	10.24382
51.422492980957	8.501526
51.4381229877472	6.72937
51.453742980957	4.925087
51.4693729877472	3.06654
51.484992980957	1.110199
51.5006229877472	-0.9824257
51.5162529945374	-3.214252
51.5318729877472	-5.531643
51.5475029945374	-7.829025
51.5631229877472	-9.980289
51.5787529945374	-11.88665
51.5943729877472	-13.56105
51.6100029945374	-15.10243
51.6256330013275	-16.69772
51.6412529945374	-18.5364
51.6568830013275	-20.74211
51.6725029945374	-23.28457
51.6881330013275	-25.92866
51.7037630081177	-28.23625
51.7193830013275	-29.63249
51.7350130081177	-29.55308
51.7506330013275	-27.57323
51.7662630081177	-23.60841
51.7818830013275	-17.97317
51.7975130081177	-11.33957
51.8131430149078	-4.570225
51.8287630081177	1.538864
51.8443930149078	6.459614
51.8600130081177	10.01923
51.8756430149078	12.3442
51.8912630081177	13.748
51.9068930149078	14.53548
51.922523021698	14.91838
51.9381430149078	15.0108
51.953773021698	14.89522
51.9693930149078	14.65797
51.985023021698	14.42806
52.0006430149078	14.32417
52.016273021698	14.38757
52.0319030284882	14.56332
52.047523021698	14.70351
52.0631530284882	14.66398
52.078773021698	14.34166
52.0944030284882	13.69329
52.110023021698	12.7397
52.1256530284882	11.56031
52.1412830352783	10.25037
52.1569030284882	8.902786
52.1725330352783	7.551071
52.1881530284882	6.142696
52.2037830352783	4.569317
52.2194030284882	2.709465
52.2350330352783	0.5226021
52.2506630420685	-1.894371
52.2662830352783	-4.297203
52.2819130420685	-6.429195
52.2975330352783	-8.124508
52.3131630420685	-9.387508
52.3287830352783	-10.39849
52.3444130420685	-11.39955
52.3600430488586	-12.62009
52.3756630420685	-14.17774
52.3912930488586	-16.10419
52.4069130420685	-18.35207
52.4225430488586	-20.82589
52.4381630420685	-23.33062
52.4537930488586	-25.50035
52.4694230556488	-26.84771
52.4850430488586	-26.82723
52.5006730556488	-25.04042
52.5162930488586	-21.38561
52.5319230556488	-16.1577
52.5475430488586	-9.964012
52.5631730556488	-3.560722
52.578803062439	2.358849
52.5944230556488	7.34621
52.610053062439	11.21287
52.6256730556488	13.98603
52.641303062439	15.75397
52.6569230556488	16.60931
52.672553062439	16.60773
52.6881830692291	15.86958
52.703803062439	14.66405
52.7194330692291	13.39487
52.735053062439	12.51032
52.7506830692291	12.30543
52.766303062439	12.80093
52.7819330692291	13.6949
52.7975630760193	14.51041
52.8131830692291	14.80274
52.8288130760193	14.34459
52.8444330692291	13.20725
52.8600630760193	11.64638
52.8756830692291	9.961353
52.8913130760193	8.33617
52.9069430828094	6.81739
52.9225630760193	5.295914
52.9381930828094	3.642487
52.9538130760193	1.781269
52.9694430828094	-0.3048019
52.9850630760193	-2.525711
53.0006930828094	-4.763592
53.0163230895996	-6.879154
53.0319430828094	-8.784088
53.0475730895996	-10.42728
53.0631930828094	-11.86082
53.0788230895996	-13.20011
53.0944430828094	-14.60083
53.1100730895996	-16.23055
53.1257030963898	-18.17707
53.1413230895996	-20.45324
53.1569530963898	-22.90078
53.1725730895996	-25.21663
53.1882030963898	-26.93465
53.2038230895996	-27.52346
53.2194530963898	-26.50252
53.2350831031799	-23.62888
53.2507030963898	-18.98162
53.2663331031799	-12.98324
53.2819530963898	-6.316113
53.2975831031799	0.2841835
53.3132030963898	6.174236
53.3288331031799	10.93075
53.3444631099701	14.35514
53.3600831031799	16.4643
53.3757131099701	17.40522
53.3913331031799	17.40496
53.4069631099701	16.76558
53.4225831031799	15.79072
53.4382131099701	14.76229
53.4538428783417	13.91354
53.4694631099701	13.39219
53.4850928783417	13.24897
53.5007131099701	13.42423
53.5163428783417	13.75893
53.5319631099701	14.02778
53.5475928783417	14.01563
53.5632228851318	13.60629
53.5788428783417	12.78993
53.5944728851318	11.66122
53.6100928783417	10.30923
53.6257228851318	8.781483
53.6413428783417	7.031704
53.6569728851318	4.979168
53.672602891922	2.576382
53.6882228851318	-0.1002045
53.703852891922	-2.865978
53.7194728851318	-5.491096
53.735102891922	-7.780785
53.7507228851318	-9.663609
53.766352891922	-11.1938
53.7819828987122	-12.52122
53.797602891922	-13.81792
53.8132328987122	-15.22864
53.828852891922	-16.83222
53.8444828987122	-18.67715
53.860102891922	-20.73043
53.8757328987122	-22.83718
53.8913629055023	-24.68589
53.9069828987122	-25.79192
53.9226129055023	-25.57802
53.9382328987122	-23.564
53.9538629055023	-19.55621
53.9694828987122	-13.79296
53.9851129055023	-6.935818
54.0007429122925	0.1281166
54.0163629055023	6.554192
54.0319929122925	11.78897
54.0476129055023	15.63294
54.0632429122925	18.1987
54.0788629055023	19.69578
54.0944929122925	20.32535
54.1101229190826	20.216
54.1257429122925	19.46721
54.1413729190826	18.25053
54.1569929122925	16.83471
54.1726229190826	15.54723
54.1882429122925	14.62813
54.2038729190826	14.16006
54.2195029258728	14.0013
54.2351229190826	13.87907
54.2507529258728	13.5266
54.2663729190826	12.77691
54.2820029258728	11.6509
54.297632932663	10.27043
54.3132529258728	8.794937
54.328882932663	7.288288
54.3445029258728	5.713921
54.360132932663	3.92683
54.3757529258728	1.788101
54.391382932663	-0.7687607
54.4070129394531	-3.674858
54.422632932663	-6.729427
54.4382629394531	-9.705463
54.453882932663	-12.39701
54.4695129394531	-14.72043
54.485132932663	-16.70078
54.5007629394531	-18.47857
54.5163929462433	-20.24242
54.5320129394531	-22.21247
54.5476429462433	-24.57754
54.5632629394531	-27.38145
54.5788929462433	-30.46708
54.5945129394531	-33.38391
54.6101429462433	-35.45118
54.6257729530334	-35.90328
54.6413929462433	-34.16457
54.6570229530334	-30.04601
54.6726429462433	-23.88279
54.6882729530334	-16.43128
54.7038929462433	-8.615555
54.7195229530334	-1.289402
54.7351529598236	4.978888
54.7507729530334	9.922501
54.7664029598236	13.50684
54.7820229530334	15.80287
54.7976529598236	16.95411
54.8132729530334	17.18782
54.8289029598236	16.81441
54.8445329666138	16.23015
54.8601529598236	15.82891
54.8757829666138	15.88824
54.8914029598236	16.46451
54.9070329666138	17.4192
54.9226529598236	18.48637
54.9382829666138	19.3827
54.9539129734039	19.91983
54.9695329666138	20.01855
54.9851629734039	19.70661
55.0007829666138	19.06034
55.0164129734039	18.20973
55.0320329666138	17.27329
55.0476629734039	16.32342
55.0632929801941	15.35872
55.0789129734039	14.29923
55.0945429801941	13.02891
55.1101629734039	11.47607
55.1257929801941	9.664919
55.1414129734039	7.684039
55.1570429801941	5.655753
55.1726729869843	3.599504
55.1882929801941	1.432071
55.2039229869843	-1.015575
55.2195429801941	-3.93008
55.2351729869843	-7.399311
55.2507929801941	-11.36542
55.2664229869843	-15.60225
55.2820529937744	-19.72379
55.2976729869843	-23.19328
55.3133029937744	-25.40898
55.3289229869843	-25.82027
55.3445529937744	-24.11945
55.3601729869843	-20.38472
55.3758029937744	-15.10664
55.3914330005646	-9.079766
55.4070529937744	-3.138307
55.4226830005646	2.058833
55.4383029937744	6.190235
55.4539330005646	9.206105
55.4695529937744	11.22241
55.4851830005646	12.37791
55.5008130073547	12.77339
55.5164330005646	12.50737
55.5320630073547	11.74158
55.5476830005646	10.72772
55.5633130073547	9.759261
55.5789330005646	9.084451
55.5945630073547	8.795631
55.6101930141449	8.837
55.6258130073547	9.024317
55.6414430141449	9.14924
55.6570630073547	9.078064
55.6726930141449	8.756487
55.6883130073547	8.206205
55.7039430141449	7.446192
55.7195730209351	6.488497
55.7351930141449	5.322243
55.7508230209351	3.952406
55.7664430141449	2.406109
55.7820730209351	0.7253418
55.7976930141449	-1.03787
55.8133230209351	-2.857138
55.8289530277252	-4.709314
55.8445730209351	-6.578196
55.8602030277252	-8.450626
55.8758230209351	-10.27825
55.8914530277252	-12.0719
55.9070730209351	-13.85395
55.9227030277252	-15.71014
55.9383330345154	-17.71791
55.9539530277252	-19.87425
55.9695830345154	-22.00015
55.9852030277252	-23.73042
56.0008330345154	-24.55162
56.0164530277252	-23.9087
56.0320830345154	-21.44824
56.0477130413055	-17.1299
56.0633330345154	-11.35188
56.0789630413055	-4.85095
56.0945830345154	1.52223
56.1102130413055	7.063541
56.1258330345154	11.38438
56.1414630413055	14.40757
56.1570930480957	16.24743
56.1727130413055	17.05409
56.1883430480957	16.95587
56.2039630413055	16.07028
56.2195930480957	14.60221
56.2352130413055	12.86306
56.2508430480957	11.21541
56.2664730548859	9.95773
56.2820930480957	9.210574
56.2977230548859	8.880727
56.3133430480957	8.736293
56.3289730548859	8.535022
56.3445930480957	8.120454
56.3602230548859	7.42774
56.375853061676	6.472549
56.3914730548859	5.271995
56.407103061676	3.838413
56.4227230548859	2.162805
56.438353061676	0.2312765
56.4539730548859	-1.93064
56.469603061676	-4.255849
56.4852330684662	-6.621709
56.500853061676	-8.894152
56.5164830684662	-10.92874
56.532103061676	-12.63737
56.5477330684662	-13.98661
56.5633630752563	-15.02081
56.5789830684662	-15.86706
56.5946130752563	-16.71522
56.6102330684662	-17.78602
56.6258630752563	-19.2446
56.6414830684662	-21.0704
56.6571130752563	-22.9735
56.6727430820465	-24.39585
56.6883630752563	-24.66066
56.7039930820465	-23.18802
56.7196130752563	-19.75742
56.7352430820465	-14.57574
56.7508630752563	-8.230881
56.7664930820465	-1.480691
56.7821230888367	4.998775
56.7977430820465	10.72209
56.8133730888367	15.41566
56.8289930820465	18.94326
56.8446230888367	21.24498
56.8602430820465	22.31354
56.8758730888367	22.27501
56.8915030956268	21.39353
56.9071230888367	20.08956
56.9227530956268	18.8384
56.9383730888367	18.04345
56.9540030956268	17.89178
56.9696230888367	18.31544
56.9852530956268	18.99897
57.000883102417	19.49341
57.0165030956268	19.40973
57.032133102417	18.54552
57.0477530956268	16.96115
57.063383102417	14.93465
57.0790030956268	12.8176
57.094633102417	10.83324
57.1102631092072	9.015296
57.125883102417	7.194427
57.1415131092072	5.114265
57.157133102417	2.626857
57.1727631092072	-0.2275245
57.188383102417	-3.234214
57.2040131092072	-6.087482
57.2196428775787	-8.553727
57.2352631092072	-10.58284
57.2508928775787	-12.28704
57.2665131092072	-13.88717
57.2821428775787	-15.59232
57.2977631092072	-17.53913
57.3133928775787	-19.77414
57.3290228843689	-22.21965
57.3446428775787	-24.64245
57.3602728843689	-26.68028
57.3758928775787	-27.83001
57.3915228843689	-27.54496
57.4071428775787	-25.40258
57.4227728843689	-21.26318
57.4384028911591	-15.36981
57.4540228843689	-8.358273
57.4696528911591	-1.094623
57.4852728843689	5.591825
57.5009028911591	11.06495
57.5165228843689	15.00051
57.5321528911591	17.35925
57.5477828979492	18.29118
57.5634028911591	18.0357
57.5790328979492	16.92749
57.5946528911591	15.3327
57.6102828979492	13.66724
57.6259028911591	12.33756
57.6415328979492	11.63397
57.6571629047394	11.65393
57.6727828979492	12.24282
57.6884129047394	13.06264
57.7040328979492	13.72289
57.7196629047394	13.97108
57.7352828979492	13.74204
57.7509129047394	13.14343
57.7665429115295	12.35041
57.7821629047394	11.44864
57.7977929115295	10.4006
57.8134129047394	9.066299
57.8290429115295	7.325572
57.8446629047394	5.139124
57.8602929115295	2.622558
57.8759229183197	-0.03123064
57.8915429115295	-2.606709
57.9071729183197	-4.936073
57.9227929115295	-6.932486
57.9384229183197	-8.592299
57.9540429115295	-9.999449
57.9696729183197	-11.31834
57.9853029251099	-12.79007
58.0009229183197	-14.62608
58.0165529251099	-16.92195
58.0321729183197	-19.50366
58.0478029251099	-21.90532
58.0634229183197	-23.45875
58.0790529251099	-23.48781
58.0946829319	-21.57065
58.1103029251099	-17.67923
58.1259329319	-12.24431
58.1415529251099	-5.983898
58.1571829319	0.2670779
58.1728029251099	5.806481
58.1884329319	10.16344
58.2040629386902	13.1399
58.2196829319	14.75868
58.2353129386902	15.19159
58.2509329319	14.6887
58.2665629386902	13.57209
58.2821829319	12.19444
58.2978129386902	10.88906
58.3134429454803	9.925277
58.3290629386902	9.450655
58.3446929454803	9.455912
58.3603129386902	9.794996
58.3759429454803	10.26883
58.3915629386902	10.66809
58.4071929454803	10.83232
58.4228229522705	10.66413
58.4384429454803	10.10647
58.4540729522705	9.112486
58.4696929454803	7.659304
58.4853229522705	5.753278
58.5009429454803	3.470827
58.5165729522705	0.9475789
58.5322029590607	-1.637518
58.5478229522705	-4.103351
58.5634529590607	-6.302629
58.5790729522705	-8.153162
58.5947029590607	-9.675409
58.6103229522705	-10.99846
58.6259529590607	-12.33605
58.6415829658508	-13.93767
58.6572029590607	-16.01859
58.6728329658508	-18.61597
58.6884529590607	-21.51008
58.7040829658508	-24.19644
58.7197029590607	-25.99362
58.7353329658508	-26.25128
58.750962972641	-24.58003
58.7665829658508	-20.97747
58.782212972641	-15.86476
58.7978329658508	-9.947155
58.813462972641	-3.996156
58.8290829658508	1.347806
58.844712972641	5.689733
58.8603429794312	8.867263
58.875962972641	10.90234
58.8915929794312	11.90819
58.907212972641	12.05354
58.9228429794312	11.54053
58.938462972641	10.62701
58.9540929794312	9.605614
58.9697229862213	8.726187
58.9853429794312	8.167149
59.0009729862213	7.978277
59.0165929794312	8.077316
59.0322229862213	8.28871
59.0478429794312	8.426576
59.0634729862213	8.318212
59.0791029930115	7.884747
59.0947229862213	7.152522
59.1103529930115	6.179698
59.1259729862213	5.059064
59.1416029930115	3.841741
59.1572329998016	2.492946
59.1728529930115	0.9278081
59.1884829998016	-0.9294113
59.2041029930115	-3.078528
59.2197329998016	-5.37115
59.2353529930115	-7.546763
59.2509829998016	-9.366739
59.2666130065918	-10.7066
59.2822329998016	-11.66002
59.2978630065918	-12.50464
59.3134829998016	-13.59642
59.3291130065918	-15.22529
59.3447329998016	-17.50871
59.3603630065918	-20.31456
59.375993013382	-23.24336
59.3916130065918	-25.72906
59.407243013382	-27.11125
59.4228630065918	-26.81732
59.438493013382	-24.5243
59.4541130065918	-20.26299
59.469743013382	-14.45794
59.4853730201721	-7.817987
59.500993013382	-1.139329
59.5166230201721	4.897835
59.532243013382	9.831878
59.5478730201721	13.47542
59.563493013382	15.84424
59.5791230201721	17.06434
59.5947530269623	17.35706
59.6103730201721	16.99878
59.6260030269623	16.30807
59.6416230201721	15.60901
59.6572530269623	15.13546
59.6728730201721	14.95364
59.6885030269623	14.97762
59.7041330337524	15.01202
59.7197530269623	14.84047
59.7353830337524	14.34252
59.7510030269623	13.51315
59.7666330337524	12.44267
59.7822530269623	11.25035
59.7978830337524	9.998228
59.8135130405426	8.645063
59.8291330337524	7.102453
59.8447630405426	5.262945
59.8603830337524	3.07373
59.8760130405426	0.5852413
59.8916330337524	-2.06959
59.9072630405426	-4.731049
59.9228930473328	-7.247305
59.9385130405426	-9.515768
59.9541430473328	-11.51624
59.9697630405426	-13.28935
59.9853930473328	-14.94249
60.0010130405426	-16.62628
60.0166430473328	-18.49097
60.0322730541229	-20.60669
60.0478930473328	-22.92196
60.0635230541229	-25.1615
60.0791430473328	-26.84774
60.0947730541229	-27.39637
60.1103930473328	-26.26649
60.1260230541229	-23.18155
60.1416530609131	-18.25573
60.1572730541229	-12.00278
60.1729030609131	-5.160755
60.1885230541229	1.495815
60.2041530609131	7.413242
60.2197730541229	12.30162
60.2354030609131	16.10992
60.2510330677032	18.87852
60.2666530609131	20.65545
60.2822830677032	21.46171
60.2979030609131	21.37728
60.3135330677032	20.64547
60.3291530609131	19.65864
60.3447830677032	18.88089
60.3604130744934	18.66391
60.3760330677032	19.09538
60.3916630744934	19.97881
60.4072830677032	20.9145
60.4229130744934	21.48267
60.4385330677032	21.42703
60.4541630744934	20.69149
60.4697930812836	19.41702
60.4854130744934	17.81944
60.5010430812836	16.0499
60.5166630744934	14.14643
60.5322930812836	12.03065
60.5479130744934	9.571075
60.5635430812836	6.705528
60.5791730880737	3.488956
60.5947930812836	0.0950737
60.6104230880737	-3.213165
60.6260430812836	-6.220451
60.6416730880737	-8.800301
60.6572930812836	-10.98019
60.6729230880737	-12.89
60.6885530948639	-14.7246
60.7041730880737	-16.65544
60.7198030948639	-18.81524
60.7354230880737	-21.24906
60.7510530948639	-23.88502
60.7666730880737	-26.50179
60.7823030948639	-28.6903
60.7979331016541	-29.9164
60.8135530948639	-29.6087
60.8291831016541	-27.35977
60.8448030948639	-23.08326
60.8604331016541	-17.09488
60.8760530948639	-10.06261
60.8916831016541	-2.804344
60.9073131084442	3.929665
60.9229331016541	9.609344
60.9385631084442	13.98911
60.9541831016541	17.03103
60.9698131084442	18.8081
60.9854331016541	19.45322
61.0010631084442	19.13841
61.0166928768158	18.14386
61.0323131084442	16.8583
61.0479428768158	15.73172
61.0635631084442	15.14776
61.0791928768158	15.29369
61.0948131084442	16.0479
61.1104428768158	17.05437
61.126072883606	17.83219
61.1416928768158	17.9873
61.157322883606	17.35294
61.1729428768158	16.03551
61.188572883606	14.32095
61.2041928768158	12.52564
61.219822883606	10.86571
61.2354528903961	9.368019
61.251072883606	7.89864
61.2667028903961	6.255268
61.282322883606	4.253906
61.2979528903961	1.826748
61.313572883606	-0.9610634
61.3292028903961	-3.900139
61.3448328971863	-6.713017
61.3604528903961	-9.132256
61.3760828971863	-11.02776
61.3917028903961	-12.47103
61.4073328971863	-13.69835
61.4229629039764	-15.06049
61.4385828971863	-16.85842
61.4542129039764	-19.19706
61.4698328971863	-21.89273
61.4854629039764	-24.47593
61.5010828971863	-26.29382
61.5167129039764	-26.69209
61.5323429107666	-25.2081
61.5479629039764	-21.70397
61.5635929107666	-16.44134
61.5792129039764	-10.00963
61.5948429107666	-3.174046
61.6104629039764	3.331402
61.6260929107666	8.975124
61.6417229175568	13.48757
61.6573429107666	16.79972
61.6729729175568	18.92529
61.6885929107666	19.90985
61.7042229175568	19.8242
61.7198429107666	18.84377
61.7354729175568	17.33558
61.7511029243469	15.80334
61.7667229175568	14.75395
61.7823529243469	14.50017
61.7979729175568	15.04047
61.8136029243469	16.03152
61.8292229175568	16.98419
61.8448529243469	17.45879
61.8604829311371	17.24635
61.8761029243469	16.38424
61.8917329311371	15.02396
61.9073529243469	13.33439
61.9229829311371	11.39091
61.9386029243469	9.208218
61.9542329311371	6.778828
61.9698629379272	4.148754
61.9854829311371	1.413719
62.0011129379272	-1.287872
62.0167329311371	-3.844246
62.0323629379272	-6.201775
62.0479829311371	-8.371578
62.0636129379272	-10.38223
62.0792429447174	-12.267
62.0948629379272	-14.05097
62.1104929447174	-15.79972
62.1261129379272	-17.64425
62.1417429447174	-19.74564
62.1573629379272	-22.20074
62.1729929447174	-24.95716
62.1886229515076	-27.66605
62.2042429447174	-29.72697
62.2198729515076	-30.40854
62.2354929447174	-29.08957
62.2511229515076	-25.52517
62.2667429447174	-19.97351
62.2823729515076	-13.13387
62.2980029582977	-5.889881
62.3136229515076	0.9529457
62.3292529582977	6.884476
62.3448729515076	11.71369
62.3605029582977	15.435
62.3761229515076	18.10124
62.3917529582977	19.71287
62.4073829650879	20.25713
62.4230029582977	19.81864
62.4386329650879	18.66051
62.4542529582977	17.22198
62.4698829650879	15.99087
62.4855029582977	15.3131
62.5011329650879	15.25596
62.5167629718781	15.62026
62.5323829650879	16.04605
62.5480129718781	16.16851
62.5636329650879	15.80326
62.5792629718781	14.96105
62.5948829650879	13.81186
62.6105129718781	12.57008
62.6261429786682	11.34393
62.6417629718781	10.09634
62.6573929786682	8.691872
62.6730129718781	6.964802
62.6886429786682	4.824253
62.7042629718781	2.290653
62.7198929786682	-0.5035934
62.7355229854584	-3.410225
62.7511429786682	-6.251129
62.7667729854584	-8.907681
62.7823929786682	-11.27617
62.7980229854584	-13.29485
62.8136429786682	-14.99035
62.8292729854584	-16.51235
62.8449029922485	-18.12229
62.8605229854584	-20.12864
62.8761529922485	-22.71443
62.8917729854584	-25.76085
62.9074029922485	-28.79545
62.9230229854584	-31.06184
62.9386529922485	-31.76164
62.9542829990387	-30.32315
62.9699029922485	-26.62142
62.9855329990387	-21.01384
63.0011529922485	-14.21982
63.0167829990387	-7.089321
63.0324029922485	-0.3649178
63.0480329990387	5.445099
63.0636630058289	10.12628
63.0792829990387	13.67363
63.0949130058289	16.17052
63.1105329990387	17.71649
63.1261630058289	18.39191
63.1417829990387	18.30589
63.1574130058289	17.65554
63.173043012619	16.7588
63.1886630058289	15.97183
63.204293012619	15.57145
63.2199130058289	15.6469
63.235543012619	16.02579
63.2511630058289	16.37909
63.266793012619	16.3746
63.2824230194092	15.81917
63.298043012619	14.73642
63.3136730194092	13.31625
63.329293012619	11.77683
63.3449230194092	10.26692
63.360543012619	8.795635
63.3761730194092	7.263264
63.3918030261993	5.546001
63.4074230194092	3.567184
63.4230530261993	1.317459
63.4386730194092	-1.126732
63.4543030261993	-3.619225
63.4699230194092	-5.994343
63.4855530261993	-8.123882
63.5011830329895	-9.929485
63.5168030261993	-11.43538
63.5324330329895	-12.73907
63.5480530261993	-14.00873
63.5636830329895	-15.43035
63.5793130397797	-17.17786
63.5949330329895	-19.35483
63.6105630397797	-21.91357
63.6261830329895	-24.59338
63.6418130397797	-26.86512
63.6574330329895	-28.06635
63.6730630397797	-27.55814
63.6886930465698	-24.98794
63.7043130397797	-20.44548
63.7199430465698	-14.47406
63.7355630397797	-7.882528
63.7511930465698	-1.478764
63.7668130397797	4.15675
63.7824430465698	8.766769
63.79807305336	12.30417
63.8136930465698	14.79466
63.82932305336	16.27702
63.8449430465698	16.78316
63.86057305336	16.44418
63.8761930465698	15.52295
63.89182305336	14.39581
63.9074530601501	13.41602
63.92307305336	12.81664
63.9387030601501	12.62075
63.95432305336	12.70332
63.9699530601501	12.86846
63.98557305336	12.93372
64.0012030601501	12.79362
64.0168330669403	12.40205
64.0324530601501	11.75877
64.0480830669403	10.88024
64.0637030601501	9.7861
64.0793330669403	8.509974
64.0949530601501	7.068613
64.1105830669403	5.456207
64.1262130737305	3.617376
64.1418330669403	1.508427
64.1574630737305	-0.8863392
64.1730830669403	-3.492136
64.1887130737305	-6.128494
64.2043330669403	-8.58456
64.2199630737305	-10.69516
64.2355930805206	-12.44299
64.2512130737305	-13.98892
64.2668430805206	-15.58989
64.2824630737305	-17.49314
64.2980930805206	-19.80034
64.3137130737305	-22.39087
64.3293430805206	-24.89646
64.3449730873108	-26.78318
64.3605930805206	-27.4702
64.3762230873108	-26.50751
64.3918430805206	-23.70138
64.4074730873108	-19.19695
64.4230930805206	-13.469
64.4387230873108	-7.190105
64.454353094101	-1.040894
64.4699730873108	4.473492
64.485603094101	9.103254
64.5012230873108	12.82753
64.516853094101	15.68487
64.5324730873108	17.6928
64.548103094101	18.79023
64.5637331008911	18.93164
64.579353094101	18.22016
64.5949831008911	16.96233
64.610603094101	15.61825
64.6262331008911	14.59756
64.641853094101	14.12032
64.6574831008911	14.12681
64.6731131076813	14.34437
64.6887331008911	14.46327
64.7043631076813	14.22821
64.7199831008911	13.56414
64.7356131076813	12.54358
64.7512331008911	11.29363
64.7668631076813	9.928083
64.7824928760529	8.501957
64.7981131076813	6.99564
64.8137428760529	5.344519
64.8293631076813	3.48822
64.8449928760529	1.407551
64.8606131076813	-0.8273602
64.8762428760529	-3.064663
64.891872882843	-5.137991
64.9074928760529	-6.921551
64.923122882843	-8.409082
64.9387428760529	-9.719744
64.954372882843	-11.05699
64.9699928760529	-12.64825
64.985622882843	-14.64388
65.0012528896332	-17.04073
65.016872882843	-19.65845
65.0325028896332	-22.12271
65.048122882843	-23.9027
65.0637528896332	-24.41628
65.079372882843	-23.18701
65.0950028896332	-20.01674
65.1106328964233	-15.08139
65.1262528896332	-8.906336
65.1418828964233	-2.248951
65.1575028896332	4.140423
65.1731328964233	9.674212
65.1887528896332	14.04256
65.2043828964233	17.1698
65.2200129032135	19.12957
65.2356328964233	20.06574
65.2512629032135	20.16004
65.2668828964233	19.64199
65.2825129032135	18.78569
65.2981328964233	17.89922
65.3137629032135	17.233
65.3293929100037	16.91684
65.3450129032135	16.9441
65.3606429100037	17.13758
65.3762629032135	17.23135
65.3918929100037	16.95094
65.4075129032135	16.12232
65.4231429100037	14.70343
65.4387729167938	12.84253
65.4543929100037	10.79837
65.4700229167938	8.833351
65.4856429100037	7.101519
65.5012729167938	5.567169
65.5168929100037	4.026355
65.5325229167938	2.225334
65.548152923584	0.009625435
65.5637729167938	-2.599882
65.579402923584	-5.402256
65.5950229167938	-8.113289
65.610652923584	-10.51757
65.6262729167938	-12.5293
65.641902923584	-14.24504
65.6575329303741	-15.84887
65.673152923584	-17.52251
65.6887829303741	-19.41371
65.704402923584	-21.6182
65.7200329303741	-24.13656
65.735652923584	-26.82667
65.7512829303741	-29.33412
65.7669129371643	-31.07071
65.7825329303741	-31.3526
65.7981629371643	-29.61717
65.8137829303741	-25.63569
65.8294129371643	-19.7196
65.8450329303741	-12.61016
65.8606629371643	-5.289414
65.8762929439545	1.368856
65.8919129371643	6.809044
65.9075429439545	10.9341
65.9231629371643	13.91946
65.9387929439545	16.04847
65.9544129371643	17.52188
65.9700429439545	18.40571
65.9856729507446	18.73241
66.0012929439545	18.60585
66.0169229507446	18.27909
66.0325429439545	18.0701
66.0481729507446	18.28099
66.0637929439545	19.01843
66.0794229507446	20.16085
66.0950529575348	21.40806
66.1106729507446	22.43469
66.1263029575348	23.04668
66.1419229507446	23.24159
66.1575529575348	23.17324
66.1731729507446	23.02192
66.1888029575348	22.89522
66.204432964325	22.75999
66.2200529575348	22.4901
66.235682964325	21.95423
66.2513029575348	21.13253
66.266932964325	20.11061
66.2825629711151	19.04218
66.298182964325	18.03107
66.3138129711151	17.04683
66.329432964325	15.95841
66.3450629711151	14.60226
66.360682964325	12.87613
66.3763129711151	10.81188
66.3919429779053	8.505304
66.4075629711151	6.021961
66.4231929779053	3.270027
66.4388129711151	-0.01231956
66.4544429779053	-4.179913
66.4700629711151	-9.458715
66.4856929779053	-15.79615
66.5013229846954	-22.80439
66.5169429779053	-29.8423
66.5325729846954	-36.20786
66.5481929779053	-41.33155
66.5638229846954	-44.89782
66.5794429779053	-46.90201
66.5950729846954	-47.56158
66.6107029914856	-47.16872
66.6263229846954	-45.94627
66.6419529914856	-43.94864
66.6575729846954	-41.08683
66.6732029914856	-37.25758
66.6888229846954	-32.48753
66.7044529914856	-27.02788
66.7200829982758	-21.32557
66.7357029914856	-15.86963
66.7513329982758	-10.99883
66.7669529914856	-6.773067
66.7825829982758	-3.028027
66.7982029914856	0.4912682
66.8138329982758	3.869099
66.8294630050659	6.942886
66.8450829982758	9.363506
66.8607130050659	10.80008
66.8763329982758	11.14927
66.8919630050659	10.62528
66.9075829982758	9.664661
66.9232130050659	8.714291
66.9388430118561	8.034695
66.9544630050659	7.579468
66.9700930118561	7.078243
66.9857130050659	6.199951
67.0013430118561	4.766327
67.0169630050659	2.829876
67.0325930118561	0.6402092
67.0482230186462	-1.485699
67.0638430118561	-3.310234
67.0794730186462	-4.773567
67.0950930118561	-5.986195
67.1107230186462	-7.141205
67.1263430118561	-8.440971
67.1419730186462	-10.02623
67.1576030254364	-11.97876
67.1732230186462	-14.30492
67.1888530254364	-16.89917
67.2044730186462	-19.4784
67.2201030254364	-21.57928
67.2357230186462	-22.62071
67.2513530254364	-22.04377
67.2669830322266	-19.53692
67.2826030254364	-15.17194
67.2982330322266	-9.403217
67.3138530254364	-2.961887
67.3294830322266	3.382111
67.3451030254364	8.994484
67.3607330322266	13.4864
67.3763630390167	16.67335
67.3919830322266	18.53519
67.4076130390167	19.1386
67.4232330322266	18.63933
67.4388630390167	17.31363
67.4544830322266	15.55186
67.4701130390167	13.82242
67.4857430458069	12.55276
67.5013630390167	12.02753
67.5169930458069	12.31454
67.5326130390167	13.25846
67.5482430458069	14.55996
67.5638630390167	15.86124
67.5794930458069	16.84921
67.595123052597	17.2817
67.6107430458069	17.07132
67.626373052597	16.26681
67.6419930458069	15.07457
67.657623052597	13.76663
67.6732430458069	12.59619
67.688873052597	11.66822
67.7045030593872	10.90133
67.720123052597	10.06925
67.7357530593872	8.887821
67.751373052597	7.231846
67.7670030593872	5.186436
67.782623052597	3.041485
67.7982530593872	1.140366
67.8138830661774	-0.2737007
67.8295030593872	-1.182503
67.8451330661774	-1.790009
67.8607530593872	-2.421413
67.8763830661774	-3.430202
67.8920030593872	-5.030525
67.9076330661774	-7.263611
67.9232630729675	-9.9109
67.9388830661774	-12.50522
67.9545130729675	-14.38384
67.9701330661774	-14.84974
67.9857630729675	-13.37979
68.0013830661774	-9.827797
68.0170130729675	-4.622238
68.0326430797577	1.256832
68.0482630729675	6.453014
68.0638930797577	9.585464
68.0795130729675	9.674641
68.0951430797577	6.469463
68.1107630729675	0.5840263
68.1263930797577	-6.671177
68.1420230865479	-13.62259
68.1576430797577	-18.7579
68.1732730865479	-21.11279
68.1888930797577	-20.50654
68.2045230865479	-17.43971
68.2201430797577	-12.83459
68.2357730865479	-7.683327
68.251403093338	-2.794544
68.2670230865479	1.263721
68.282653093338	4.194515
68.2982730865479	5.85495
68.313903093338	6.231228
68.3295230865479	5.448685
68.345153093338	3.747925
68.3607831001282	1.516956
68.376403093338	-0.8434258
68.3920331001282	-2.981167
68.407653093338	-4.731609
68.4232831001282	-6.120152
68.438903093338	-7.35062
68.4545331001282	-8.674576
68.4701631069183	-10.24608
68.4857831001282	-12.09354
68.5014131069183	-14.0393
68.5170331001282	-15.84813
68.5326631069183	-17.3301
68.5482928752899	-18.48115
68.5639131069183	-19.47048
68.5795428752899	-20.57001
68.5951631069183	-21.93016
68.6107928752899	-23.36895
68.6264131069183	-24.38189
68.6420428752899	-24.22941
68.6576728820801	-22.27483
68.6732928752899	-18.26322
68.6889228820801	-12.49785
68.7045428752899	-5.732655
68.7201728820801	1.060087
68.7357928752899	7.046257
68.7514228820801	11.75939
68.7670528888702	15.07856
68.7826728820801	17.15574
68.7983028888702	18.18334
68.8139228820801	18.30966
68.8295528888702	17.65372
68.8451728820801	16.39371
68.8608028888702	14.88275
68.8764328956604	13.56515
68.8920528888702	12.84311
68.9076828956604	12.85061
68.9233028888702	13.40916
68.9389328956604	14.08663
68.9545528888702	14.40767
68.9701828956604	14.08106
68.9858129024506	13.07792
69.0014328956604	11.60033
69.0170629024506	9.896193
69.0326828956604	8.128349
69.0483129024506	6.274329
69.0639328956604	4.231046
69.0795629024506	1.927257
69.0951929092407	-0.5882874
69.1108129024506	-3.128284
69.1264429092407	-5.466178
69.1420629024506	-7.456861
69.1576929092407	-9.110506
69.1733129024506	-10.56847
69.1889429092407	-12.06381
69.2045729160309	-13.81951
69.2201929092407	-15.98928
69.2358229160309	-18.59445
69.2514429092407	-21.43234
69.2670729160309	-24.08186
69.2826929092407	-25.93747
69.2983229160309	-26.34113
69.313952922821	-24.78739
69.3295729160309	-21.11712
69.345202922821	-15.62601
69.3608229160309	-8.999888
69.376452922821	-2.133189
69.3920729160309	4.156788
69.407702922821	9.320213
69.4233329296112	13.13241
69.438952922821	15.63868
69.4545829296112	17.04498
69.470202922821	17.59103
69.4858329296112	17.51192
69.501452922821	17.01732
69.5170829296112	16.29847
69.5327129364014	15.53493
69.5483329296112	14.87131
69.5639629364014	14.3882
69.5795829296112	14.10827
69.5952129364014	13.9785
69.6108329296112	13.90759
69.6264629364014	13.79677
69.6420929431915	13.55241
69.6577129364014	13.05387
69.6733429431915	12.18119
69.6889629364014	10.81632
69.7045929431915	8.884276
69.7202129364014	6.414783
69.7358429431915	3.556416
69.7514729499817	0.5571423
69.7670929431915	-2.29991
69.7827229499817	-4.78853
69.7983429431915	-6.833258
69.8139729499817	-8.515081
69.8295929431915	-10.03001
69.8452229499817	-11.64054
69.8608529567719	-13.56851
69.8764729499817	-15.94644
69.8921029567719	-18.74095
69.9077229499817	-21.72589
69.9233529567719	-24.45568
69.9389729499817	-26.32209
69.9546029567719	-26.67181
69.970232963562	-25.01729
69.9858529567719	-21.23611
70.001482963562	-15.63814
70.0171029567719	-8.936878
70.032732963562	-2.011724
70.0483529567719	4.308071
70.063982963562	9.462849
70.0796129703522	13.24776
70.095232963562	15.75175
70.1108629703522	17.22783
70.126482963562	17.95673
70.1421129703522	18.18663
70.157732963562	18.09422
70.1733629703522	17.83594
70.1889929771423	17.54398
70.2046129703522	17.32283
70.2202429771423	17.20232
70.2358629703522	17.13045
70.2514929771423	16.97692
70.2671129703522	16.60625
70.2827429771423	15.95126
70.2983729839325	15.03256
70.3139929771423	13.93091
70.3296229839325	12.73204
70.3452429771423	11.43707
70.3608729839325	9.956833
70.3764929771423	8.144379
70.3921229839325	5.909145
70.4077529907227	3.271366
70.4233729839325	0.3932304
70.4390029907227	-2.49324
70.4546229839325	-5.170712
70.4702529907227	-7.536846
70.4858729839325	-9.617748
70.5015029907227	-11.54595
70.5171329975128	-13.549
70.5327529907227	-15.82545
70.5483829975128	-18.50609
70.5640029907227	-21.53209
70.5796329975128	-24.58053
70.5952529907227	-27.07399
70.6108829975128	-28.30552
70.626513004303	-27.64305
70.6421329975128	-24.75684
70.657763004303	-19.80435
70.6733829975128	-13.36136
70.689013004303	-6.277889
70.7046430110931	0.6095428
70.720263004303	6.684162
70.7358930110931	11.65644
70.751513004303	15.49031
70.7671430110931	18.27981
70.782763004303	20.15273
70.7983930110931	21.16575
70.8140230178833	21.3868
70.8296430110931	20.91142
70.8452730178833	19.93758
70.8608930110931	18.73825
70.8765230178833	17.5901
70.8921430110931	16.70226
70.9077730178833	16.11432
70.9234030246735	15.72123
70.9390230178833	15.31225
70.9546530246735	14.70993
70.9702730178833	13.82796
70.9859030246735	12.73264
71.0015230178833	11.55477
71.0171530246735	10.37025
71.0327830314636	9.132839
71.0484030246735	7.656761
71.0640330314636	5.745018
71.0796530246735	3.328262
71.0952830314636	0.5180397
71.1109030246735	-2.405605
71.1265330314636	-5.123852
71.1421630382538	-7.41888
71.1577830314636	-9.247974
71.1734130382538	-10.75304
71.1890330314636	-12.17597
71.2046630382538	-13.76552
71.2202830314636	-15.7093
71.2359130382538	-18.08231
71.2515430450439	-20.79557
71.2671630382538	-23.55787
71.2827930450439	-25.84516
71.2984130382538	-26.99271
71.3140430450439	-26.37931
71.3296630382538	-23.67155
71.3452930450439	-18.98262
71.3609230518341	-12.87214
71.3765430450439	-6.167953
71.3921730518341	0.3179283
71.4077930450439	6.019943
71.4234230518341	10.69003
71.4390430450439	14.31635
71.4546730518341	16.98445
71.4703030586243	18.71745
71.4859230518341	19.52177
71.5015530586243	19.44445
71.5171730518341	18.67521
71.5328030586243	17.55944
71.5484230518341	16.50834
71.5640530586243	15.81438
71.5796830654144	15.57731
71.5953030586243	15.67173
71.6109330654144	15.81656
71.6265530586243	15.7594
71.6421830654144	15.34983
71.6578030586243	14.58839
71.6734330654144	13.56546
71.6890630722046	12.38798
71.7046830654144	11.08615
71.7203130722046	9.627201
71.7359330654144	7.947384
71.7515630722046	5.972408
71.7671830654144	3.715664
71.7828130722046	1.23888
71.7984430789948	-1.330059
71.8140630722046	-3.839405
71.8296930789948	-6.146427
71.8453130722046	-8.147629
71.8609430789948	-9.822422
71.8765630722046	-11.23785
71.8921930789948	-12.57182
71.9078230857849	-14.04581
71.9234430789948	-15.88789
71.9390730857849	-18.19545
71.9546930789948	-20.85198
71.9703230857849	-23.50108
71.9859430789948	-25.58186
72.0015730857849	-26.44458
72.0172030925751	-25.53942
72.0328230857849	-22.62146
72.0484530925751	-17.82936
72.0640730857849	-11.72187
72.0797030925751	-5.086155
72.0953230857849	1.287376
72.1109530925751	6.808765
72.1265830993652	11.19343
72.1422030925751	14.43228
72.1578330993652	16.68544
72.1734530925751	18.09895
72.1890830993652	18.78432
72.2047030925751	18.83195
72.2203330993652	18.35839
72.2359631061554	17.58134
72.2515830993652	16.78863
72.2672131061554	16.23453
72.2828330993652	16.03193
72.2984631061554	16.11944
72.3140830993652	16.29425
72.3297131061554	16.31316
72.345342874527	16.00738
72.3609631061554	15.31081
72.376592874527	14.27457
72.3922131061554	12.99369
72.407842874527	11.55412
72.4234631061554	9.962147
72.439092874527	8.179344
72.4547228813171	6.135738
72.470342874527	3.795914
72.4859728813171	1.182529
72.501592874527	-1.582531
72.5172228813171	-4.297321
72.532842874527	-6.71265
72.5484728813171	-8.615894
72.5641028881073	-9.938087
72.5797228813171	-10.78364
72.5953528881073	-11.43493
72.6109728813171	-12.2421
72.6266028881073	-13.50488
72.6422228813171	-15.3782
72.6578528881073	-17.79829
72.6734828948975	-20.52486
72.6891028881073	-23.1684
72.7047328948975	-25.26175
72.7203528881073	-26.30831
72.7359828948975	-25.8953
72.7516028881073	-23.75278
72.7672328948975	-19.88031
72.7828629016876	-14.60197
72.7984828948975	-8.520447
72.8141129016876	-2.357819
72.8297328948975	3.244663
72.8453629016876	7.887413
72.8609828948975	11.45952
72.8766129016876	14.05949
72.8922429084778	15.85239
72.9078629016876	16.94366
72.9234929084778	17.356
72.9391129016876	17.1105
72.9547429084778	16.33777
72.9703629016876	15.3353
72.9859929084778	14.47308
73.0016229152679	14.07765
73.0172429084778	14.24435
73.0328729152679	14.80904
73.0484929084778	15.4297
73.0641229152679	15.75372
73.0797429084778	15.58536
73.0953729152679	14.93247
73.1110029220581	13.93097
73.1266229152679	12.73848
73.1422529220581	11.42478
73.1578729152679	9.970284
73.1735029220581	8.331322
73.1891229152679	6.512192
73.2047529220581	4.590494
73.2203829288483	2.682362
73.2360029220581	0.8669853
73.2516329288483	-0.8672352
73.2672529220581	-2.60726
73.2828829288483	-4.456221
73.2985029220581	-6.47809
73.3141329288483	-8.648973
73.3297629356384	-10.85081
73.3453829288483	-12.92786
73.3610129356384	-14.76035
73.3766329288483	-16.32741
73.3922629356384	-17.73609
73.4078929424286	-19.18837
73.4235129356384	-20.87289
73.4391429424286	-22.81985
73.4547629356384	-24.81516
73.4703929424286	-26.3892
73.4860129356384	-26.94991
73.5016429424286	-25.96479
73.5172729492188	-23.16233
73.5328929424286	-18.6536
73.5485229492188	-12.90064
73.5641429424286	-6.582683
73.5797729492188	-0.3944111
73.5953929424286	5.115897
73.6110229492188	9.602635
73.6266529560089	12.93204
73.6422729492188	15.12005
73.6579029560089	16.27651
73.6735229492188	16.57018
73.6891529560089	16.23208
73.7047729492188	15.53972
73.7204029560089	14.80069
73.7360329627991	14.26185
73.7516529560089	14.06247
73.7672829627991	14.19041
73.7829029560089	14.50734
73.7985329627991	14.82728
73.8141529560089	14.98592
73.8297829627991	14.92203
73.8454129695892	14.63282
73.8610329627991	14.14437
73.8766629695892	13.42976
73.8922829627991	12.42869
73.9079129695892	11.0714
73.9235329627991	9.350611
73.9391629695892	7.356849
73.9547929763794	5.249137
73.9704129695892	3.211709
73.9860429763794	1.34152
74.0016629695892	-0.3599806
74.0172929763794	-2.001491
74.0329129695892	-3.723847
74.0485429763794	-5.613552
74.0641729831696	-7.655007
74.0797929763794	-9.725282
74.0954229831696	-11.65628
74.1110429763794	-13.31125
74.1266729831696	-14.66098
74.1422929763794	-15.79641
74.1579229831696	-16.91016
74.1735529899597	-18.19713
74.1891729831696	-19.78391
74.2048029899597	-21.70036
74.2204229831696	-23.8109
74.2360529899597	-25.83221
74.2516729831696	-27.34146
