onset	BVP
1.93165683746338	-18.36665
1.94727683067322	-19.5896
1.96290683746338	-21.08018
1.97853684425354	-22.7923
1.99415683746338	-24.5421
2.00978684425354	-25.96919
2.02540683746338	-26.62606
2.04103684425354	-26.0917
2.05665683746338	-24.1427
2.07228684425354	-20.86643
2.0879168510437	-16.61957
2.10353684425354	-11.95731
2.1191668510437	-7.381794
2.13478684425354	-3.213921
2.1504168510437	0.4748955
2.16603684425354	3.821444
2.1816668510437	7.024517
2.19729685783386	10.18825
2.2129168510437	13.24409
2.22854685783386	15.98556
2.2441668510437	18.12786
2.25979685783386	19.48607
2.2754168510437	20.01936
2.29104685783386	19.84165
2.30667686462402	19.14453
2.32229685783386	18.13778
2.33792686462402	16.99667
2.35354685783386	15.85936
2.36917686462402	14.81831
2.38479685783386	13.94034
2.40042686462402	13.248
2.41605687141418	12.7024
2.43167686462402	12.21059
2.44730687141418	11.66037
2.46292686462402	10.93355
2.47855687141418	9.958138
2.49417686462402	8.714943
2.50980687141418	7.300098
2.52543687820435	5.841312
2.54105687141418	4.492981
2.55668687820435	3.346348
2.57230687141418	2.407291
2.58793687820435	1.53722
2.60355687141418	0.5400238
2.61918687820435	-0.741375
2.63481688499451	-2.385857
2.65043687820435	-4.315788
2.66606688499451	-6.360062
2.68168687820435	-8.312195
2.69731688499451	-10.01699
2.71293687820435	-11.35629
2.72856688499451	-12.32488
2.74419689178467	-13.03638
2.75981688499451	-13.68118
2.77544689178467	-14.56523
2.79106688499451	-15.92559
2.80669689178467	-17.83091
2.82231688499451	-20.06565
2.83794689178467	-22.15868
2.85357689857483	-23.45609
2.86919689178467	-23.39808
2.88482689857483	-21.69503
2.90044689178467	-18.39944
2.91607689857483	-13.95865
2.93169689178467	-8.979088
2.94732689857483	-4.059517
2.96295690536499	0.359539
2.97857689857483	4.049522
2.99420690536499	7.003784
3.00982689857483	9.359879
3.02545690536499	11.29342
3.04107689857483	12.98262
3.05670690536499	14.44732
3.07233691215515	15.62852
3.08795690536499	16.38018
3.10358691215515	16.55091
3.11920690536499	16.07616
3.13483691215515	15.04214
3.15045690536499	13.64014
3.16608691215515	12.14668
3.18171691894531	10.80101
3.19733691215515	9.672028
3.21296691894531	8.729996
3.22858691215515	7.896233
3.24421691894531	7.108917
3.25983691215515	6.397495
3.27546691894531	5.814709
3.29109692573547	5.357716
3.30671691894531	4.951897
3.32234692573547	4.41386
3.33796691894531	3.548275
3.35359692573547	2.254471
3.36921691894531	0.5949173
3.38484692573547	-1.251972
3.40047693252563	-3.013615
3.41609692573547	-4.466831
3.43172693252563	-5.514816
3.44734692573547	-6.191231
3.46297693252563	-6.656166
3.47859692573547	-7.161037
3.49422693252563	-7.889702
3.5098569393158	-8.947117
3.52547693252563	-10.33138
3.5411069393158	-11.89247
3.55672693252563	-13.42864
3.5723569393158	-14.73761
3.58798694610596	-15.70684
3.6036069393158	-16.33382
3.61923694610596	-16.75858
3.6348569393158	-17.16179
3.65048694610596	-17.73636
3.6661069393158	-18.56129
3.68173694610596	-19.48098
3.69736695289612	-20.13104
3.71298694610596	-20.04273
3.72861695289612	-18.78797
3.74423694610596	-16.14732
3.75986695289612	-12.21428
3.77548694610596	-7.370106
3.79111695289612	-2.159035
3.80674695968628	2.898499
3.82236695289612	7.463188
3.83799695968628	11.43964
3.85361695289612	14.8783
3.86924695968628	17.89162
3.88486695289612	20.54049
3.90049695968628	22.74387
3.91612696647644	24.33091
3.93174695968628	25.09024
3.94737696647644	24.89579
3.96299695968628	23.80558
3.97862696647644	22.02194
3.99424695968628	19.82004
4.00987696647644	17.46384
4.0255069732666	15.09575
4.04112696647644	12.78322
4.0567569732666	10.55412
4.07237696647644	8.492119
4.0880069732666	6.702572
4.10362696647644	5.265289
4.1192569732666	4.178238
4.13488698005676	3.304749
4.1505069732666	2.470627
4.16613698005676	1.503757
4.1817569732666	0.3626595
4.19738698005676	-0.8926926
4.2130069732666	-2.141598
4.22863698005676	-3.313267
4.24426698684692	-4.380749
4.25988698005676	-5.330444
4.27551698684692	-6.143272
4.29113698005676	-6.725586
4.30676698684692	-7.011116
4.32238698005676	-7.048817
4.33801698684692	-6.980968
4.35364699363708	-7.038036
4.36926698684692	-7.428913
4.38489699363708	-8.189434
4.40051698684692	-9.188229
4.41614699363708	-10.17859
4.43176698684692	-10.88832
4.44739699363708	-11.23173
4.46302700042725	-11.34937
4.47864699363708	-11.57535
4.49427700042725	-12.3039
4.50989699363708	-13.79552
4.52552700042725	-16.03864
4.54114699363708	-18.67488
4.55677700042725	-21.09256
4.57240700721741	-22.55544
4.58802700042725	-22.48834
4.60365700721741	-20.69654
4.61927700042725	-17.37717
4.63490700721741	-13.04807
4.65052700042725	-8.2976
4.66615700721741	-3.631382
4.68178701400757	0.6548538
4.69740700721741	4.449223
4.71303701400757	7.760319
4.72865700721741	10.61281
4.74428701400757	12.98995
4.75990700721741	14.91377
4.77553701400757	16.38932
4.79116702079773	17.44505
4.80678701400757	18.11912
4.82241702079773	18.42422
4.83803701400757	18.36999
4.85366702079773	18.0102
4.86928701400757	17.42893
4.88491702079773	16.72773
4.90054702758789	16.01191
4.91616702079773	15.34969
4.93179702758789	14.7439
4.94741702079773	14.21225
4.96304702758789	13.75694
4.97866702079773	13.38353
4.99429702758789	13.07507
5.00992703437805	12.73804
5.02554702758789	12.1988
5.04117703437805	11.27224
5.05679702758789	9.821301
5.07242703437805	7.824501
5.08804702758789	5.433678
5.10367703437805	2.898457
5.11930704116821	0.4654503
5.13492703437805	-1.672985
5.15055704116821	-3.47327
5.16617703437805	-5.034378
5.18180704116821	-6.511353
5.19742703437805	-8.037563
5.21305704116821	-9.669815
5.22868704795837	-11.33534
5.24430704116821	-12.93985
5.25993704795837	-14.36823
5.27555704116821	-15.57155
5.29118704795837	-16.62428
5.30680704116821	-17.69429
5.32243704795837	-19.01255
5.33806705474854	-20.75331
5.35368704795837	-22.93278
5.36931705474854	-25.30801
5.38493704795837	-27.45586
5.40056705474854	-28.83244
5.41618704795837	-28.92024
5.43181705474854	-27.44574
5.44744682312012	-24.42098
5.46306705474854	-20.15319
5.47869682312012	-15.15809
5.49431705474854	-9.960133
5.50994682312012	-4.954721
5.52556705474854	-0.3830566
5.54119682312012	3.671434
5.55682682991028	7.234745
5.57244682312012	10.38068
5.58807682991028	13.16431
5.60369682312012	15.60292
5.61932682991028	17.65985
5.63494682312012	19.26606
5.65057682991028	20.35368
5.66620683670044	20.85026
5.68182682991028	20.72006
5.69745683670044	20.00147
5.71307682991028	18.8116
5.72870683670044	17.34709
5.74432682991028	15.84888
5.75995683670044	14.50586
5.7755868434906	13.42652
5.79120683670044	12.61735
5.8068368434906	12.00706
5.82245683670044	11.47831
5.8380868434906	10.88867
5.85371685028076	10.10273
5.8693368434906	9.054825
5.88496685028076	7.739975
5.9005868434906	6.211935
5.91621685028076	4.574926
5.9318368434906	2.99988
5.94746685028076	1.616266
5.96309685707092	0.5156269
5.97871685028076	-0.3167019
5.99434685707092	-1.002995
6.00996685028076	-1.720415
6.02559685707092	-2.610985
6.04121685028076	-3.756567
6.05684685707092	-5.153864
6.07247686386108	-6.671482
6.08809685707092	-8.120749
6.10372686386108	-9.329468
6.11934685707092	-10.21195
6.13497686386108	-10.79168
6.15059685707092	-11.2318
6.16622686386108	-11.73921
6.18185687065125	-12.55079
6.19747686386108	-13.84245
6.21310687065125	-15.68137
6.22872686386108	-17.98152
6.24435687065125	-20.45555
6.25997686386108	-22.65844
6.27560687065125	-24.0358
6.29123687744141	-24.09476
6.30685687065125	-22.54608
6.32248687744141	-19.43242
6.33810687065125	-15.09675
6.35373687744141	-10.07538
6.36935687065125	-4.893631
6.38498687744141	0.09282112
6.40061688423157	4.766171
6.41623687744141	9.125431
6.43186688423157	13.20049
6.44748687744141	16.93512
6.46311688423157	20.17372
6.47873687744141	22.73647
6.49436688423157	24.47632
6.50999689102173	25.29552
6.52561688423157	25.2008
6.54124689102173	24.27967
6.55686688423157	22.67484
6.57249689102173	20.59488
6.58811688423157	18.2798
6.60374689102173	15.9918
6.61937689781189	13.95681
6.63499689102173	12.31858
6.65062689781189	11.08792
6.66624689102173	10.17955
6.68187689781189	9.460064
6.69749689102173	8.804024
6.71312689781189	8.115835
6.72875690460205	7.341652
6.74437689781189	6.458275
6.76000690460205	5.444555
6.77562689781189	4.257114
6.79125690460205	2.847307
6.80687689781189	1.182095
6.82250690460205	-0.6984863
6.83813691139221	-2.684139
6.85375690460205	-4.629219
6.86938691139221	-6.383163
6.88500690460205	-7.859699
6.90063691139221	-9.037954
6.91625690460205	-9.981886
6.93188691139221	-10.794
6.94751691818237	-11.54844
6.96313691139221	-12.26032
6.97876691818237	-12.89514
6.99438691139221	-13.39194
7.01001691818237	-13.72978
7.02563691139221	-13.95872
7.04126691818237	-14.18425
7.05689692497253	-14.52467
7.07251691818237	-15.10635
7.08814692497253	-16.03633
7.10376691818237	-17.40823
7.11939692497253	-19.22878
7.13501691818237	-21.33267
7.15064692497253	-23.35857
7.1662769317627	-24.78947
7.18189692497253	-25.10768
7.1975269317627	-23.95444
7.21314692497253	-21.30064
7.2287769317627	-17.42694
7.24439692497253	-12.81385
7.2600269317627	-7.915017
7.27565693855286	-3.026158
7.2912769317627	1.751212
7.30690693855286	6.37335
7.3225269317627	10.76545
7.33815693855286	14.81982
7.3537769317627	18.39383
7.36940693855286	21.3949
7.38503694534302	23.78971
7.40065693855286	25.58962
7.41628694534302	26.79251
7.43190693855286	27.38915
7.44753694534302	27.36047
7.46315693855286	26.763
7.47878694534302	25.73242
7.49441695213318	24.44878
7.51003694534302	23.05853
7.52566695213318	21.64543
7.54128694534302	20.21524
7.55691695213318	18.77773
7.57253694534302	17.32947
7.58816695213318	15.87156
7.60379695892334	14.40341
7.61941695213318	12.8695
7.63504695892334	11.16631
7.65066695213318	9.2078
7.66629695892334	6.977676
7.68191695213318	4.566899
7.69754695892334	2.184604
7.7131769657135	0.04498959
7.72879695892334	-1.710162
7.7444269657135	-3.030931
7.76004695892334	-4.036919
7.7756769657135	-4.931656
7.79129695892334	-5.898694
7.8069269657135	-7.008549
7.82255697250366	-8.220926
7.8381769657135	-9.408326
7.85380697250366	-10.45837
7.8694269657135	-11.34704
7.88505697250366	-12.16392
7.9006769657135	-13.07977
7.91630697250366	-14.25937
7.93193697929382	-15.81532
7.94755697250366	-17.77669
7.96318697929382	-20.09154
7.97880697250366	-22.58952
7.99443697929382	-24.95593
8.01005697250366	-26.77834
8.02568697929382	-27.58315
8.04131698608398	-26.98448
8.05693697929382	-24.8497
8.07256698608398	-21.31607
8.08818697929382	-16.80895
8.10381698608398	-11.86348
8.11944699287415	-6.97493
8.13506698608398	-2.468716
8.15069699287415	1.514515
8.16631698608398	4.992386
8.18194699287415	8.04398
8.19756698608398	10.75478
8.21319699287415	13.19396
8.22882699966431	15.36176
8.24444699287415	17.20739
8.26007699966431	18.63371
8.27569699287415	19.5247
8.29132699966431	19.80725
8.30694699287415	19.50283
8.32257699966431	18.74187
8.33820700645447	17.72472
8.35382699966431	16.65168
8.36945700645447	15.68657
8.38507699966431	14.90802
8.40070700645447	14.29964
8.41632699966431	13.81005
8.43195700645447	13.34785
8.44758701324463	12.80528
8.46320700645447	12.0555
8.47883701324463	10.98025
8.49445700645447	9.500574
8.51008701324463	7.616896
8.52570700645447	5.423237
8.54133701324463	3.105204
8.55696702003479	0.8686237
8.57258701324463	-1.084608
8.58821702003479	-2.659672
8.60383701324463	-3.829464
8.61946702003479	-4.666855
8.63508701324463	-5.290579
8.65071702003479	-5.823252
8.66634702682495	-6.363703
8.68196702003479	-6.944603
8.69759702682495	-7.575556
8.71321702003479	-8.226233
8.72884702682495	-8.888277
8.74446702003479	-9.582357
8.76009702682495	-10.38458
8.77572703361511	-11.40253
8.79134702682495	-12.75722
8.80697703361511	-14.5713
8.82259702682495	-16.88174
8.83822703361511	-19.58121
8.85384702682495	-22.3845
8.86947703361511	-24.83603
8.88510704040527	-26.3966
8.90072703361511	-26.61277
8.91635704040527	-25.26174
8.93197703361511	-22.42738
8.94760704040527	-18.48328
8.96322703361511	-13.94357
8.97885704040527	-9.273487
8.99448704719543	-4.782721
9.01010704040527	-0.5861855
9.02573704719543	3.364849
9.04135704040527	7.17123
9.05698704719543	10.87894
9.07260704040527	14.41816
9.08823704719543	17.59831
9.1038670539856	20.15324
9.11948704719543	21.81953
9.1351170539856	22.44521
9.15073704719543	22.04266
9.1663670539856	20.80709
9.18198704719543	19.04844
9.1976170539856	17.08519
9.21324682235718	15.1381
9.2288670539856	13.32653
9.24449682235718	11.68625
9.2601170539856	10.1917
9.27574682235718	8.852186
9.2913670539856	7.6626
9.30699682235718	6.613398
9.32262682914734	5.662888
9.33824682235718	4.749891
9.35387682914734	3.7987
9.36949682235718	2.772436
9.38512682914734	1.666533
9.40074682235718	0.4823437
9.41637682914734	-0.7596035
9.4320068359375	-2.051229
9.44762682914734	-3.348173
9.4632568359375	-4.60932
9.47887682914734	-5.791348
9.4945068359375	-6.885502
9.51012682914734	-7.943811
9.5257568359375	-9.020351
9.54138684272766	-10.16747
9.5570068359375	-11.32425
9.57263684272766	-12.35998
9.5882568359375	-13.08741
9.60388684272766	-13.37374
9.6195068359375	-13.19592
9.63513684272766	-12.70444
9.65076684951782	-12.18094
9.66638684272766	-11.93217
9.68201684951782	-12.21636
9.69763684272766	-13.13152
9.71326684951782	-14.55301
9.72888684272766	-16.16161
9.74451684951782	-17.47307
9.76014685630798	-17.9807
9.77576684951782	-17.31531
9.79139685630798	-15.38114
9.80701684951782	-12.37122
9.82264685630798	-8.704605
9.83826684951782	-4.881661
9.85389685630798	-1.318589
9.86952686309814	1.732407
9.88514685630798	4.224691
9.90077686309814	6.238793
9.91639685630798	7.913296
9.93202686309814	9.367123
9.94764685630798	10.66645
9.96327686309814	11.80236
9.97890686988831	12.6808
9.99452686309814	13.19452
10.0101568698883	13.20225
10.0257768630981	12.68427
10.0414068698883	11.7467
10.0570268630981	10.63897
10.0726568698883	9.673953
10.0882868766785	9.116956
10.1039068698883	9.092924
10.1195368766785	9.573766
10.1351568698883	10.38345
10.1507868766785	11.25988
10.1664068698883	11.94116
10.1820368766785	12.21164
10.1976668834686	11.92533
10.2132868766785	11.05308
10.2289168834686	9.658644
10.2445368766785	7.871498
10.2601668834686	5.886049
10.2757868766785	3.9018
10.2914168834686	2.086028
10.3070468902588	0.5283504
10.3226668834686	-0.7326131
10.3382968902588	-1.763203
10.3539168834686	-2.656641
10.3695468902588	-3.520854
10.3851668834686	-4.446281
10.4007968902588	-5.476855
10.416426897049	-6.628984
10.4320468902588	-7.897097
10.447676897049	-9.320429
10.4632968902588	-10.93999
10.478926897049	-12.84235
10.4945468902588	-15.08625
10.510176897049	-17.67416
10.5258069038391	-20.51229
10.541426897049	-23.36834
10.5570569038391	-25.89342
10.572676897049	-27.63161
10.5883069038391	-28.15521
10.603926897049	-27.19729
10.6195569038391	-24.74268
10.6351869106293	-21.08386
10.6508069038391	-16.70784
10.6664369106293	-12.14329
10.6820569038391	-7.749481
10.6976869106293	-3.669395
10.7133169174194	0.1605783
10.7289369106293	3.880674
10.7445669174194	7.547142
10.7601869106293	11.07747
10.7758169174194	14.26354
10.7914369106293	16.87236
10.8070669174194	18.72351
10.8226969242096	19.77498
10.8383169174194	20.06408
10.8539469242096	19.7214
10.8695669174194	18.90601
10.8851969242096	17.76929
10.9008169174194	16.47151
10.9164469242096	15.15973
10.9320769309998	13.98447
10.9476969242096	13.0448
10.9633269309998	12.37575
10.9789469242096	11.92465
10.9945769309998	11.55239
11.0101969242096	11.04004
11.0258269309998	10.19441
11.0414569377899	8.892248
11.0570769309998	7.142019
11.0727069377899	5.094139
11.0883269309998	2.962503
11.1039569377899	0.9682331
11.1195769309998	-0.7590237
11.1352069377899	-2.227764
11.1508369445801	-3.578257
11.1664569377899	-4.981119
11.1820869445801	-6.557594
11.1977069377899	-8.30928
11.2133369445801	-10.10766
11.2289569377899	-11.76168
11.2445869445801	-13.09022
11.2602169513702	-13.98197
11.2758369445801	-14.48339
11.2914669513702	-14.77095
11.3070869445801	-15.11961
11.3227169513702	-15.81201
11.3383369445801	-17.09227
11.3539669513702	-19.07003
11.3695969581604	-21.66754
11.3852169513702	-24.63033
11.4008469581604	-27.51635
11.4164669513702	-29.75785
11.4320969581604	-30.79051
11.4477169513702	-30.13712
11.4633469581604	-27.57416
11.4789769649506	-23.2041
11.4945969581604	-17.40447
11.5102269649506	-10.76128
11.5258469581604	-3.909939
11.5414769649506	2.650578
11.5570969581604	8.637402
11.5727269649506	13.9732
11.5883569717407	18.7252
11.6039769649506	22.92767
11.6196069717407	26.53173
11.6352269649506	29.42601
11.6508569717407	31.44036
11.6664769649506	32.44751
11.6821069717407	32.44732
11.6977369785309	31.56185
11.7133569717407	30.01206
11.7289869785309	28.08606
11.7446069717407	26.01759
11.7602369785309	23.95031
11.7758569717407	21.98858
11.7914869785309	20.19192
11.807116985321	18.59021
11.8227369785309	17.21342
11.838366985321	16.07983
11.8539869785309	15.09793
11.869616985321	14.10815
11.8852369785309	12.85493
11.900866985321	11.13292
11.9164969921112	8.890312
11.932116985321	6.260441
11.9477469921112	3.526054
11.963366985321	1.038635
11.9789969921112	-0.9464836
11.994616985321	-2.410465
12.0102469921112	-3.506714
12.0258769989014	-4.555946
12.0414969921112	-5.848091
12.0571269989014	-7.533497
12.0727469921112	-9.584908
12.0883769989014	-11.82055
12.1039969921112	-14.00487
12.1196269989014	-15.94363
12.1352570056915	-17.5713
12.1508769989014	-18.90274
12.1665070056915	-20.06517
12.1821269989014	-21.22768
12.1977570056915	-22.55653
12.2133769989014	-24.20262
12.2290070056915	-26.20569
12.2446370124817	-28.4638
12.2602570056915	-30.69624
12.2758870124817	-32.44574
12.2915070056915	-33.10141
12.3071370124817	-32.10741
12.3227570056915	-29.16541
12.3383870124817	-24.34189
12.3540170192719	-18.11727
12.3696370124817	-11.18102
12.3852670192719	-4.249626
12.4008870124817	2.182304
12.4165170192719	7.89447
12.4321370124817	12.9193
12.4477670192719	17.34992
12.463397026062	21.20132
12.4790170192719	24.38276
12.494647026062	26.7226
12.5102670192719	28.09501
12.525897026062	28.4974
12.5415170192719	28.07918
12.557147026062	27.04459
12.5727770328522	25.62901
12.588397026062	24.02542
12.6040270328522	22.34591
12.619647026062	20.65233
12.6352770328522	18.99089
12.650897026062	17.39318
12.6665270328522	15.91812
12.6821570396423	14.60627
12.6977770328522	13.42276
12.7134070396423	12.25857
12.7290270328522	10.90197
12.7446570396423	9.136658
12.7602770328522	6.844162
12.7759070396423	4.104424
12.7915370464325	1.181633
12.8071570396423	-1.580551
12.8227870464325	-3.924515
12.8384070396423	-5.808876
12.8540370464325	-7.411606
12.8696570396423	-9.018333
12.8852870464325	-10.83174
12.9009170532227	-12.88531
12.9165370464325	-15.00603
12.9321670532227	-16.92557
12.9477870464325	-18.42221
12.9634170532227	-19.44038
12.9790470600128	-20.10616
12.9946670532227	-20.65314
13.0102970600128	-21.35017
13.0259170532227	-22.40433
13.0415470600128	-23.8689
13.0571670532227	-25.61821
13.0727970600128	-27.34713
13.0884268283844	-28.57413
13.1040470600128	-28.72467
13.1196768283844	-27.29951
13.1352970600128	-24.00411
13.1509268283844	-18.96474
13.1665470600128	-12.66381
13.1821768283844	-5.817421
13.1978068351746	0.854126
13.2134268283844	6.886749
13.2290568351746	12.1346
13.2446768283844	16.71539
13.2603068351746	20.82586
13.2759268283844	24.59779
13.2915568351746	27.96835
13.3071868419647	30.71987
13.3228068351746	32.60123
13.3384368419647	33.43398
13.3540568351746	33.18703
13.3696868419647	31.96782
13.3853068351746	30.00135
13.4009368419647	27.53976
13.4165668487549	24.84743
13.4321868419647	22.16121
13.4478168487549	19.68615
13.4634368419647	17.57846
13.4790668487549	15.91695
13.4946868419647	14.68738
13.5103168487549	13.81897
13.525946855545	13.14927
13.5415668487549	12.46941
13.557196855545	11.59129
13.5728168487549	10.38102
13.588446855545	8.814262
13.6040668487549	6.974892
13.619696855545	5.007797
13.6353268623352	3.070274
13.650946855545	1.232147
13.6665768623352	-0.538353
13.682196855545	-2.336761
13.6978268623352	-4.271851
13.713446855545	-6.369064
13.7290768623352	-8.589577
13.7447068691254	-10.78456
13.7603268623352	-12.83034
13.7759568691254	-14.61255
13.7915768623352	-16.09943
13.8072068691254	-17.27247
13.8228268623352	-18.16068
13.8384568691254	-18.86561
13.8540868759155	-19.57096
13.8697068691254	-20.58058
13.8853368759155	-22.13947
13.9009568691254	-24.27882
13.9165868759155	-26.67226
13.9322068691254	-28.65031
13.9478368759155	-29.41525
13.9634668827057	-28.34151
13.9790868759155	-25.20425
13.9947168827057	-20.30342
14.0103368759155	-14.25317
14.0259668827057	-7.783707
14.0415868759155	-1.493423
14.0572168827057	4.288101
14.0728468894958	9.442535
14.0884668827057	13.96929
14.1040968894958	17.91202
14.1197168827057	21.3327
14.1353468894958	24.29918
14.1509668827057	26.88651
14.1665968894958	29.11606
14.182226896286	30.88116
14.1978468894958	31.97255
14.213476896286	32.15965
14.2290968894958	31.29236
14.244726896286	29.43436
14.2603468894958	26.86013
14.275976896286	23.95497
14.2916069030762	21.14165
14.307226896286	18.71089
14.3228569030762	16.82271
14.338476896286	15.45921
14.3541069030762	14.55544
14.369726896286	14.01879
14.3853569030762	13.76181
14.4009869098663	13.65397
14.4166069030762	13.50593
14.4322369098663	13.10182
14.4478569030762	12.18607
14.4634869098663	10.59379
14.4791069030762	8.314651
14.4947369098663	5.492607
14.5103669166565	2.420868
14.5259869098663	-0.5759583
14.5416169166565	-3.300102
14.5572369098663	-5.705963
14.5728669166565	-7.892723
14.5884869098663	-10.0176
14.6041169166565	-12.1538
14.6197469234467	-14.20403
14.6353669166565	-15.99451
14.6509969234467	-17.3576
14.6666169166565	-18.24601
14.6822469234467	-18.7987
14.6978669166565	-19.29444
14.7134969234467	-20.04527
14.7291269302368	-21.27414
14.7447469234467	-23.06377
14.7603769302368	-25.27046
14.7759969234467	-27.61403
14.7916269302368	-29.61714
14.8072469234467	-30.74662
14.8228769302368	-30.49148
14.838506937027	-28.54523
14.8541269302368	-24.91364
14.869756937027	-19.9234
14.8853769302368	-14.09864
14.901006937027	-7.965179
14.9166269302368	-1.9869
14.932256937027	3.649696
14.9478869438171	8.875824
14.963506937027	13.7002
14.9791369438171	18.11612
14.994756937027	22.04497
15.0103869438171	25.34715
15.026006937027	27.87617
15.0416369438171	29.50175
15.0572669506073	30.12847
15.0728869438171	29.77998
15.0885169506073	28.57455
15.1041369438171	26.73782
15.1197669506073	24.55484
15.1353969573975	22.32547
15.1510169506073	20.28014
15.1666469573975	18.57848
15.1822669506073	17.32229
15.1978969573975	16.52332
15.2135169506073	16.09498
15.2291469573975	15.88028
15.2447769641876	15.67925
15.2603969573975	15.27241
15.2760269641876	14.48768
15.2916469573975	13.23606
15.3072769641876	11.47793
15.3228969573975	9.2495
15.3385269641876	6.624718
15.3541569709778	3.720333
15.3697769641876	0.7028389
15.3854069709778	-2.220432
15.4010269641876	-4.846512
15.4166569709778	-7.109707
15.4322769641876	-9.054939
15.4479069709778	-10.8656
15.4635369777679	-12.71306
15.4791569709778	-14.68059
15.4947869777679	-16.71045
15.5104069709778	-18.57689
15.5260369777679	-20.01769
15.5416569709778	-20.82073
15.5572869777679	-20.92555
15.5729169845581	-20.45135
15.5885369777679	-19.67805
15.6041669845581	-18.92071
15.6197869777679	-18.44607
15.6354169845581	-18.37936
15.6510369777679	-18.6649
15.6666669845581	-19.08332
15.6822969913483	-19.31068
15.6979169845581	-18.9855
15.7135469913483	-17.80158
15.7291669845581	-15.6235
15.7447969913483	-12.48943
15.7604169845581	-8.641331
15.7760469913483	-4.443144
15.7916769981384	-0.2514153
15.8072969913483	3.689812
15.8229269981384	7.284986
15.8385469913483	10.58313
15.8541769981384	13.66078
15.8697969913483	16.52215
15.8854269981384	19.04406
15.9010570049286	21.03945
15.9166769981384	22.30902
15.9323070049286	22.77285
15.9479269981384	22.48193
15.9635570049286	21.58094
15.9791769981384	20.28922
15.9948070049286	18.78448
16.0104370117188	17.22313
16.0260570049286	15.67418
16.0416870117188	14.17413
16.0573070049286	12.70958
16.0729370117188	11.27676
16.0885570049286	9.893301
16.1041870117188	8.584538
16.1198170185089	7.367468
16.1354370117188	6.234476
16.1510670185089	5.138402
16.1666870117188	4.002912
16.1823170185089	2.820267
16.1979370117188	1.616868
16.2135670185089	0.4363797
16.2291970252991	-0.6972015
16.2448170185089	-1.829539
16.2604470252991	-3.071675
16.2760670185089	-4.550056
16.2916970252991	-6.334991
16.3073170185089	-8.397983
16.3229470252991	-10.59347
16.3385770320892	-12.75541
16.3541970252991	-14.73714
16.3698270320892	-16.46177
16.3854470252991	-17.9212
16.4010770320892	-19.14997
16.4166970252991	-20.23614
16.4323270320892	-21.29575
16.4479570388794	-22.46229
16.4635770320892	-23.77636
16.4792070388794	-25.15025
16.4948270320892	-26.33089
16.5104570388794	-26.90417
16.5260770320892	-26.45273
16.5417070388794	-24.70981
16.5573370456696	-21.68028
16.5729570388794	-17.6619
16.5885870456696	-13.13296
16.6042070388794	-8.563681
16.6198370456696	-4.258207
16.6354570388794	-0.3518677
16.6510870456696	3.212687
16.6667170524597	6.508764
16.6823370456696	9.552006
16.6979670524597	12.28171
16.7135870456696	14.57484
16.7292170524597	16.31877
16.7448370456696	17.44874
16.7604670524597	17.99616
16.7760970592499	18.02962
16.7917170524597	17.67765
16.8073470592499	17.05687
16.8229670524597	16.31102
16.8385970592499	15.5684
16.8542170524597	14.96372
16.8698470592499	14.53632
16.8854768276215	14.26487
16.9010970592499	14.05652
16.9167268276215	13.79335
16.9323470592499	13.39335
16.9479768276215	12.78921
16.9635970592499	11.93738
16.9792268276215	10.78211
16.9948568344116	9.286758
17.0104768276215	7.427532
17.0261068344116	5.280766
17.0417268276215	3.010311
17.0573568344116	0.8186913
17.0729768276215	-1.121151
17.0886068344116	-2.736473
17.1042368412018	-4.075279
17.1198568344116	-5.240967
17.1354868412018	-6.325481
17.1511068344116	-7.352016
17.1667368412018	-8.304142
17.1823568344116	-9.1366
17.1979868412018	-9.827782
17.2136168479919	-10.39706
17.2292368412018	-10.89721
17.2448668479919	-11.43895
17.2604868412018	-12.16444
17.2761168479919	-13.24909
17.2917368412018	-14.84847
17.3073668479919	-17.05994
17.3229968547821	-19.79788
17.3386168479919	-22.76168
17.3542468547821	-25.4458
17.3698668479919	-27.27586
17.3854968547821	-27.77937
17.4011168479919	-26.70239
17.4167468547821	-24.10558
17.4323768615723	-20.29172
17.4479968547821	-15.75425
17.4636268615723	-10.97485
17.4792468547821	-6.373367
17.4948768615723	-2.204937
17.5104968547821	1.461658
17.5261268615723	4.688435
17.5417568683624	7.609608
17.5573768615723	10.3168
17.5730068683624	12.77972
17.5886268615723	14.83564
17.6042568683624	16.27329
17.6198768615723	16.9309
17.6355068683624	16.77297
17.6511368751526	15.97039
17.6667568683624	14.80756
17.6823868751526	13.57774
17.6980068683624	12.50061
17.7136368751526	11.6657
17.7292568683624	11.04703
17.7448868751526	10.5716
17.7605168819427	10.17107
17.7761368751526	9.761032
17.7917668819427	9.281059
17.8073868751526	8.647377
17.8230168819427	7.789505
17.8386468887329	6.701355
17.8542668819427	5.440468
17.8698968887329	4.093246
17.8855168819427	2.75872
17.9011468887329	1.515884
17.9167668819427	0.3705444
17.9323968887329	-0.6598358
17.9480268955231	-1.59816
17.9636468887329	-2.465347
17.9792768955231	-3.27076
17.9948968887329	-4.053589
18.0105268955231	-4.8965
18.0261468887329	-5.922081
18.0417768955231	-7.221489
18.0574069023132	-8.822319
18.0730268955231	-10.60622
18.0886569023132	-12.33865
18.1042768955231	-13.74702
18.1199069023132	-14.63216
18.1355268955231	-15.00674
18.1511569023132	-15.06858
18.1667869091034	-15.17511
18.1824069023132	-15.68166
18.1980369091034	-16.77294
18.2136569023132	-18.41292
18.2292869091034	-20.328
18.2449069023132	-22.09513
18.2605369091034	-23.2447
18.2761669158936	-23.37947
18.2917869091034	-22.24062
18.3074169158936	-19.7928
18.3230369091034	-16.24139
18.3386669158936	-11.97477
18.3542869091034	-7.464096
18.3699169158936	-3.137268
18.3855469226837	0.7454376
18.4011669158936	4.148232
18.4167969226837	7.172005
18.4324169158936	9.997299
18.4480469226837	12.74295
18.4636669158936	15.38744
18.4792969226837	17.74836
18.4949269294739	19.60983
18.5105469226837	20.73148
18.5261769294739	20.97658
18.5417969226837	20.34903
18.5574269294739	18.99046
18.5730469226837	17.14282
18.5886769294739	15.07387
18.604306936264	13.02779
18.6199269294739	11.13103
18.635556936264	9.429764
18.6511769294739	7.90258
18.666806936264	6.544373
18.6824269294739	5.337128
18.698056936264	4.326118
18.7136869430542	3.514236
18.729306936264	2.866905
18.7449369430542	2.284065
18.760556936264	1.606796
18.7761869430542	0.7317886
18.791806936264	-0.3924103
18.8074369430542	-1.665039
18.8230669498444	-2.949677
18.8386869430542	-4.080315
18.8543169498444	-4.979652
18.8699369430542	-5.678581
18.8855669498444	-6.285934
18.9011869430542	-6.898773
18.9168169498444	-7.562012
18.9324469566345	-8.255829
18.9480669498444	-8.895844
18.9636969566345	-9.446411
18.9793169498444	-9.937431
18.9949469566345	-10.44217
19.0105669498444	-11.05539
19.0261969566345	-11.85334
19.0418269634247	-12.85284
19.0574469566345	-14.0423
19.0730769634247	-15.41675
19.0886969566345	-16.93501
19.1043269634247	-18.54887
19.1199469566345	-20.11504
19.1355769634247	-21.40707
19.1512069702148	-22.08573
19.1668269634247	-21.79511
19.1824569702148	-20.26286
19.1980769634247	-17.39954
19.2137069702148	-13.40441
19.2293269634247	-8.671944
19.2449569702148	-3.746391
19.260586977005	0.8883972
19.2762069702148	4.932747
19.291836977005	8.301079
19.3074569702148	11.09225
19.323086977005	13.46774
19.3387069702148	15.50902
19.354336977005	17.17622
19.3699669837952	18.35739
19.385586977005	18.94663
19.4012169837952	18.92334
19.416836977005	18.37309
19.4324669837952	17.43764
19.448086977005	16.28053
19.4637169837952	15.04285
19.4793469905853	13.84198
19.4949669837952	12.7944
19.5105969905853	12.02588
19.5262169837952	11.59927
19.5418469905853	11.47958
19.5574669837952	11.52828
19.5730969905853	11.47139
19.5887269973755	11.0637
19.6043469905853	10.12459
19.6199769973755	8.603592
19.6355969905853	6.596352
19.6512269973755	4.287743
19.6668469905853	1.867485
19.6824769973755	-0.4991531
19.6981070041656	-2.650414
19.7137269973755	-4.488007
19.7293570041656	-5.950287
19.7449769973755	-7.100853
19.7606070041656	-8.074356
19.7762269973755	-9.075546
19.7918570041656	-10.24125
19.8074870109558	-11.62138
19.8231070041656	-13.15297
19.8387370109558	-14.67317
19.8543570041656	-16.07529
19.8699870109558	-17.33147
19.8856070041656	-18.53085
19.9012370109558	-19.80923
19.916867017746	-21.30065
19.9324870109558	-23.05828
19.948117017746	-25.03383
19.9637370109558	-27.05733
19.979367017746	-28.81368
19.9949970245361	-29.94936
20.010617017746	-30.0751
20.0262470245361	-28.88956
20.041867017746	-26.29614
20.0574970245361	-22.4513
20.073117017746	-17.73952
20.0887470245361	-12.62721
20.1043770313263	-7.547543
20.1199970245361	-2.779022
20.1356270313263	1.577671
20.1512470245361	5.554127
20.1668770313263	9.225487
20.1824970245361	12.59398
20.1981270313263	15.58844
20.2137570381165	18.05704
20.2293770313263	19.87128
20.2450070381165	20.92824
20.2606270313263	21.24231
20.2762570381165	20.88906
20.2918770313263	20.0344
20.3075070381165	18.89162
20.3231370449066	17.67168
20.3387570381165	16.58443
20.3543870449066	15.7752
20.3700070381165	15.32502
20.3856370449066	15.17122
20.4012570381165	15.19736
20.4168870449066	15.24672
20.4325170516968	15.20938
20.4481370449066	15.02136
20.4637670516968	14.61435
20.4793870449066	13.914
20.4950170516968	12.81204
20.5106370449066	11.22675
20.5262670516968	9.170799
20.5418970584869	6.805737
20.5575170516968	4.398148
20.5731470584869	2.209244
20.5887670516968	0.3897324
20.6043970584869	-1.12072
20.6200170516968	-2.521999
20.6356470584869	-4.030464
20.6512768268585	-5.763454
20.6668970584869	-7.667898
20.6825268268585	-9.607443
20.6981470584869	-11.40172
20.7137768268585	-12.94159
20.7293970584869	-14.18187
20.7450268268585	-15.18519
20.7606568336487	-16.06914
20.7762768268585	-17.00469
20.7919068336487	-18.18262
20.8075268268585	-19.76122
20.8231568336487	-21.8155
20.8387768268585	-24.24137
20.8544068336487	-26.73999
20.8700368404388	-28.75645
20.8856568336487	-29.6895
20.9012868404388	-29.02688
20.9169068336487	-26.56912
20.9325368404388	-22.49404
20.9481568336487	-17.3202
20.9637868404388	-11.71493
20.979416847229	-6.276239
20.9950368404388	-1.352214
21.010666847229	3.016304
21.0262868404388	6.973719
21.041916847229	10.71997
21.0575368404388	14.35349
21.073166847229	17.81935
21.0887968540192	20.96837
21.104416847229	23.63438
21.1200468540192	25.65644
21.135666847229	26.94389
21.1512968540192	27.45807
21.166916847229	27.24755
21.1825468540192	26.44036
21.1981768608093	25.24718
21.2137968540192	23.88711
21.2294268608093	22.54857
21.2450468540192	21.30117
21.2606768608093	20.09238
21.2762968540192	18.81582
21.2919268608093	17.38881
21.3075568675995	15.80014
21.3231768608093	14.13264
21.3388068675995	12.48719
21.3544268608093	10.88435
21.3700568675995	9.317514
21.3856768608093	7.721115
21.4013068675995	6.049935
21.4169368743896	4.341244
21.4325568675995	2.71792
21.4481868743896	1.300553
21.4638068675995	0.1787612
21.4794368743896	-0.6682229
21.4950568675995	-1.392515
21.5106868743896	-2.169693
21.5263168811798	-3.161375
21.5419368743896	-4.435237
21.5575668811798	-5.931666
21.5731868743896	-7.488985
21.5888168811798	-8.958078
21.6044368743896	-10.24753
21.6200668811798	-11.41432
21.63569688797	-12.59474
21.6513168811798	-13.9297
21.66694688797	-15.47611
21.6825668811798	-17.19671
21.69819688797	-18.97541
21.7138168811798	-20.73856
21.72944688797	-22.47317
21.7450768947601	-24.20514
21.76069688797	-25.88063
21.7763268947601	-27.24763
21.79194688797	-27.8004
21.8075768947601	-26.99723
21.82319688797	-24.46883
21.8388268947601	-20.22059
21.8544569015503	-14.68545
21.8700768947601	-8.529308
21.8857069015503	-2.385769
21.9013268947601	3.325038
21.9169569015503	8.452337
21.9325768947601	13.0316
21.9482069015503	17.11332
21.9638369083405	20.70449
21.9794569015503	23.7491
21.9950869083405	26.17089
22.0107069015503	27.94556
22.0263369083405	29.06519
22.0419569015503	29.57265
22.0575869083405	29.46535
22.0732169151306	28.76533
22.0888369083405	27.52329
22.1044669151306	25.8885
22.1200869083405	24.01635
22.1357169151306	22.06233
22.1513369083405	20.13344
22.1669669151306	18.28641
22.1825969219208	16.58636
22.1982169151306	15.08842
22.2138469219208	13.84334
22.2294669151306	12.81277
22.2450969219208	11.87176
22.2607169151306	10.79758
22.2763469219208	9.35351
22.2919769287109	7.461918
22.3075969219208	5.222424
22.3232269287109	2.900099
22.3388469219208	0.8324623
22.3544769287109	-0.7274837
22.3700969219208	-1.722324
22.3857269287109	-2.235209
22.4013569355011	-2.452044
22.4169769287109	-2.576599
22.4326069355011	-2.763451
22.4482269287109	-3.124849
22.4638569355011	-3.717911
22.4794769287109	-4.571335
22.4951069355011	-5.641017
22.5107369422913	-6.828306
22.5263569355011	-8.007867
22.5419869422913	-9.076097
22.5576069355011	-10.04389
22.5732369422913	-11.0156
22.5888669490814	-12.16801
22.6044869422913	-13.60877
22.6201169490814	-15.35222
22.6357369422913	-17.28637
22.6513669490814	-19.23142
22.6669869422913	-20.9618
22.6826169490814	-22.20123
22.6982469558716	-22.6814
22.7138669490814	-22.13357
22.7294969558716	-20.39413
22.7451169490814	-17.40579
22.7607469558716	-13.3083
22.7763669490814	-8.422418
22.7919969558716	-3.149528
22.8076269626617	2.119386
22.8232469558716	7.090257
22.8388769626617	11.61659
22.8544969558716	15.6587
22.8701269626617	19.1972
22.8857469558716	22.2133
22.9013769626617	24.62762
22.9170069694519	26.31135
22.9326269626617	27.12863
22.9482569694519	26.9449
22.9638769626617	25.73691
22.9795069694519	23.59041
22.9951269626617	20.77366
23.0107569694519	17.61767
23.0263869762421	14.47778
23.0420069694519	11.64274
23.0576369762421	9.282747
23.0732569694519	7.431572
23.0888869762421	6.014589
23.1045069694519	4.925048
23.1201369762421	4.02216
23.1357669830322	3.247809
23.1513869762421	2.560618
23.1670169830322	1.946623
23.1826369762421	1.388976
23.1982669830322	0.892374
23.2138869762421	0.4728994
23.2295169830322	0.1371908
23.2451469898224	-0.1011434
23.2607669830322	-0.262547
23.2763969898224	-0.3857136
23.2920169830322	-0.5267076
23.3076469898224	-0.7619944
23.3232669830322	-1.171534
23.3388969898224	-1.8181
23.3545269966125	-2.724958
23.3701469898224	-3.856415
23.3857769966125	-5.084718
23.4013969898224	-6.277294
23.4170269966125	-7.298637
23.4326469898224	-8.077413
23.4482769966125	-8.623099
23.4639070034027	-9.004599
23.4795269966125	-9.370623
23.4951570034027	-9.867289
23.5107769966125	-10.6881
23.5264070034027	-11.96066
23.5420269966125	-13.76731
23.5576570034027	-16.01247
23.5732870101929	-18.44661
23.5889070034027	-20.61519
23.6045370101929	-21.96411
23.6201570034027	-22.04936
23.6357870101929	-20.61471
23.6514070034027	-17.76918
23.6670370101929	-13.87403
23.682667016983	-9.487602
23.6982870101929	-5.091995
23.713917016983	-1.009647
23.7295370101929	2.648294
23.745167016983	5.963293
23.7607870101929	9.030064
23.776417016983	11.87978
23.7920470237732	14.39084
23.807667016983	16.37058
23.8232970237732	17.62193
23.838917016983	18.10638
23.8545470237732	17.94409
23.870167016983	17.35339
23.8857970237732	16.58907
23.9014270305634	15.77295
23.9170470237732	14.92259
23.9326770305634	13.99292
23.9482970237732	12.9733
23.9639270305634	11.91137
23.9795470237732	10.9135
23.9951770305634	10.06432
24.0108070373535	9.340618
24.0264270305634	8.673241
24.0420570373535	7.917896
24.0576770305634	6.976551
24.0733070373535	5.801205
24.0889270305634	4.422901
24.1045570373535	2.908188
24.1201870441437	1.301964
24.1358070373535	-0.3266754
24.1514370441437	-1.956127
24.1670570373535	-3.507469
24.1826870441437	-4.956558
24.1983070373535	-6.263008
24.2139370441437	-7.43668
24.2295670509338	-8.486904
24.2451870441437	-9.439709
24.2608170509338	-10.29839
24.2764370441437	-11.02657
24.2920670509338	-11.65441
24.3076870441437	-12.19295
24.3233170509338	-12.75561
24.338947057724	-13.47147
24.3545670509338	-14.48607
24.370197057724	-15.89955
24.3858170509338	-17.69376
24.401447057724	-19.68218
24.4170670509338	-21.51783
24.432697057724	-22.82415
24.4483268260956	-23.23325
24.463947057724	-22.54411
24.4795768260956	-20.70845
24.495197057724	-17.84754
24.5108268260956	-14.23375
24.526447057724	-10.20524
24.5420768260956	-6.09713
24.5577068328857	-2.185879
24.5733268260956	1.332989
24.5889568328857	4.428898
24.6045768260956	7.140285
24.6202068328857	9.50827
24.6358268260956	11.50005
24.6514568328857	12.97954
24.6670868396759	13.80847
24.6827068328857	13.92494
24.6983368396759	13.46317
24.7139568328857	12.66862
24.7295868396759	11.8872
24.7452068328857	11.37562
24.7608368396759	11.23151
24.7764668464661	11.3898
24.7920868396759	11.66995
24.8077168464661	11.87122
24.8233368396759	11.80521
24.8389668464661	11.36811
24.8545968532562	10.54026
24.8702168464661	9.397816
24.8858468532562	8.086681
24.9014668464661	6.748264
24.9170968532562	5.474522
24.9327168464661	4.268673
24.9483468532562	3.067944
24.9639768600464	1.818409
24.9795968532562	0.5172462
24.9952268600464	-0.7301788
25.0108468532562	-1.804184
25.0264768600464	-2.636574
25.0420968532562	-3.283859
25.0577268600464	-3.881531
25.0733568668365	-4.61042
25.0889768600464	-5.595909
25.1046068668365	-6.860779
25.1202268600464	-8.314285
25.1358568668365	-9.807938
25.1514768600464	-11.21944
25.1671068668365	-12.47259
25.1827368736267	-13.59599
25.1983568668365	-14.62248
25.2139868736267	-15.62027
25.2296068668365	-16.69074
25.2452368736267	-17.91846
25.2608568668365	-19.32348
25.2764868736267	-20.82029
25.2921168804169	-22.14971
25.3077368736267	-22.94468
25.3233668804169	-22.83106
25.3389868736267	-21.52965
25.3546168804169	-18.95902
25.3702368736267	-15.31786
25.3858668804169	-10.98107
25.401496887207	-6.384048
25.4171168804169	-1.955826
25.432746887207	2.052765
25.4483668804169	5.555748
25.463996887207	8.590103
25.4796168804169	11.28777
25.495246887207	13.74001
25.5108768939972	15.90586
25.526496887207	17.64246
25.5421268939972	18.76594
25.557746887207	19.1287
25.5733768939972	18.74966
25.588996887207	17.81882
25.6046268939972	16.59182
25.6202569007874	15.32489
25.6358768939972	14.13118
25.6515069007874	12.96184
25.6671268939972	11.74127
25.6827569007874	10.42007
25.6983768939972	9.041267
25.7140069007874	7.752678
25.7296369075775	6.713974
25.7452569007874	5.965919
25.7608869075775	5.43232
25.7765069007874	4.946442
25.7921369075775	4.318703
25.8077569007874	3.470932
25.8233869075775	2.424629
25.8390169143677	1.276352
25.8546369075775	0.1684799
25.8702669143677	-0.8039627
25.8858869075775	-1.662598
25.9015169143677	-2.47261
25.9171369075775	-3.346886
25.9327669143677	-4.38427
25.9483969211578	-5.593575
25.9640169143677	-6.961884
25.9796469211578	-8.421906
25.9952669143677	-9.898575
26.0108969211578	-11.34615
26.0265169143677	-12.76144
26.0421469211578	-14.13873
26.057776927948	-15.49902
26.0733969211578	-16.86429
26.089026927948	-18.23901
26.1046469211578	-19.66075
26.120276927948	-21.1394
26.1358969211578	-22.59963
26.151526927948	-23.88232
26.1671569347382	-24.71537
26.182776927948	-24.75154
26.1984069347382	-23.73502
26.214026927948	-21.59193
26.2296569347382	-18.44967
26.245276927948	-14.61562
26.2609069347382	-10.46486
26.2765369415283	-6.273582
26.2921569347382	-2.204765
26.3077869415283	1.68071
26.3234069347382	5.369144
26.3390369415283	8.785778
26.3546569347382	11.79288
26.3702869415283	14.27343
26.3859169483185	16.15103
26.4015369415283	17.41875
26.4171669483185	18.16322
26.4327869415283	18.48097
26.4484169483185	18.43161
26.4640369415283	18.02293
26.4796669483185	17.23478
26.4952969551086	16.09016
26.5109169483185	14.67687
26.5265469551086	13.17427
26.5421669483185	11.73962
26.5577969551086	10.51081
26.5734169483185	9.502239
26.5890469551086	8.608322
26.6046769618988	7.657753
26.6202969551086	6.50145
26.6359269618988	5.077915
26.6515469551086	3.405567
26.6671769618988	1.565636
26.6827969551086	-0.3720741
26.6984269618988	-2.329357
26.714056968689	-4.2439
26.7296769618988	-6.047359
26.745306968689	-7.622387
26.7609269618988	-8.917316
26.776556968689	-9.923489
26.7921769618988	-10.719
26.807806968689	-11.44385
26.8234369754791	-12.22104
26.839056968689	-13.08822
26.8546869754791	-14.00076
26.870306968689	-14.87617
26.8859369754791	-15.66053
26.901556968689	-16.43937
26.9171869754791	-17.38456
26.9328169822693	-18.65604
26.9484369754791	-20.30349
26.9640669822693	-22.19826
26.9796869754791	-24.03853
26.9953169822693	-25.41681
27.0109369754791	-25.92763
27.0265669822693	-25.23823
27.0421969890594	-23.17406
27.0578169822693	-19.75784
27.0734469890594	-15.16911
27.0890669822693	-9.731474
27.1046969890594	-3.878817
27.1203269958496	1.92411
27.1359469890594	7.30394
27.1515769958496	12.04421
27.1671969890594	16.13226
27.1828269958496	19.65669
27.1984469890594	22.70129
27.2140769958496	25.26971
27.2297070026398	27.22898
27.2453269958496	28.41879
27.2609570026398	28.7256
27.2765769958496	28.16334
27.2922070026398	26.8937
27.3078269958496	25.17533
27.3234570026398	23.2853
27.3390870094299	21.40782
27.3547070026398	19.67402
27.3703370094299	18.16645
27.3859570026398	16.94928
27.4015870094299	16.01672
27.4172070026398	15.27988
27.4328370094299	14.54722
27.4484670162201	13.58495
27.4640870094299	12.21105
27.4797170162201	10.3763
27.4953370094299	8.176704
27.5109670162201	5.856027
27.5265870094299	3.684695
27.5422170162201	1.873435
27.5578470230103	0.5026007
27.5734670162201	-0.5212498
27.5890970230103	-1.398976
27.6047170162201	-2.367176
27.6203470230103	-3.588387
27.6359670162201	-5.144195
27.6515970230103	-6.973708
27.6672270298004	-8.919411
27.6828470230103	-10.79675
27.6984770298004	-12.45259
27.7140970230103	-13.8546
27.7297270298004	-15.10225
27.7453470230103	-16.39475
27.7609770298004	-17.90349
27.7766070365906	-19.76063
27.7922270298004	-21.97678
27.8078570365906	-24.37191
27.8234770298004	-26.58319
27.8391070365906	-28.13013
27.8547270298004	-28.50054
27.8703570365906	-27.32886
27.8859870433807	-24.50883
27.9016070365906	-20.25764
27.9172370433807	-15.04512
27.9328570365906	-9.446878
27.9484870433807	-3.98413
27.9641070365906	1.043352
27.9797370433807	5.587061
27.9953670501709	9.759111
28.0109870433807	13.71668
28.0266170501709	17.54617
28.0422370433807	21.18371
28.0578670501709	24.43166
28.0734870433807	27.00718
28.0891170501709	28.61377
28.1047470569611	29.06985
28.1203670501709	28.41724
28.1359970569611	26.90946
28.1516170501709	24.93912
28.1672470569611	22.93161
28.1828670501709	21.17484
28.1984970569611	19.73531
28.2141268253326	18.48445
28.2297470569611	17.26008
28.2453768253326	15.93491
28.2609970569611	14.51552
28.2766268253326	13.1044
28.2922470569611	11.7803
28.3078768253326	10.60807
28.3235068321228	9.559605
28.3391268253326	8.576973
28.3547568321228	7.598526
28.3703768253326	6.616485
28.3860068321228	5.624151
28.4016268253326	4.576684
28.4172568321228	3.410659
28.432886838913	2.053377
28.4485068321228	0.4641542
28.464136838913	-1.38147
28.4797568321228	-3.424305
28.495386838913	-5.603184
28.5110068321228	-7.802416
28.526636838913	-9.881737
28.5422668457031	-11.72732
28.557886838913	-13.25085
28.5735168457031	-14.49972
28.589136838913	-15.62972
28.6047668457031	-16.9196
28.620386838913	-18.60719
28.6360168457031	-20.80932
28.6516468524933	-23.37418
28.6672668457031	-25.94727
28.6828968524933	-28.03061
28.6985168457031	-29.10886
28.7141468524933	-28.82616
28.7297668457031	-27.02937
28.7453968524933	-23.81817
28.7610268592834	-19.4807
28.7766468524933	-14.44591
28.7922768592834	-9.149861
28.8078968524933	-3.987428
28.8235268592834	0.73844
28.8391468524933	4.908501
28.8547768592834	8.490143
28.8704068660736	11.58971
28.8860268592834	14.3153
28.9016568660736	16.74018
28.9172768592834	18.81035
28.9329068660736	20.38306
28.9485268592834	21.27441
28.9641568660736	21.36745
28.9797868728638	20.75319
28.9954068660736	19.65745
29.0110368728638	18.38113
29.0266568660736	17.17823
29.0422868728638	16.12323
29.0579068660736	15.12105
29.0735368728638	14.01856
29.0891668796539	12.73072
29.1047868728638	11.3076
29.1204168796539	9.928961
29.1360368728638	8.709866
29.1516668796539	7.672157
29.1672868728638	6.705956
29.1829168796539	5.661677
29.1985468864441	4.475847
29.2141668796539	3.214081
29.2297968864441	2.040346
29.2454168796539	1.071326
29.2610468864441	0.3274736
29.2766668796539	-0.3485966
29.2922968864441	-1.16939
29.3079268932343	-2.293756
29.3235468864441	-3.747104
29.3391768932343	-5.419079
29.3547968864441	-7.16085
29.3704268932343	-8.831905
29.3860468864441	-10.40231
29.4016768932343	-11.88576
29.4173069000244	-13.35417
29.4329268932343	-14.87112
29.4485569000244	-16.48533
29.4641768932343	-18.22975
29.4798069000244	-20.04147
29.4954268932343	-21.71698
29.5110569000244	-22.87305
29.5266869068146	-23.0459
29.5423069000244	-21.80576
29.5579369068146	-18.95654
29.5735569000244	-14.67535
29.5891869068146	-9.441389
29.6048069000244	-3.931493
29.6204369068146	1.279281
29.6360669136047	5.859794
29.6516869068146	9.765599
29.6673169136047	13.09601
29.6829369068146	15.9886
29.6985669136047	18.43997
29.7141969203949	20.32507
29.7298169136047	21.49447
29.7454469203949	21.85062
29.7610669136047	21.46143
29.7766969203949	20.54115
29.7923169136047	19.33811
29.8079469203949	18.01003
29.8235769271851	16.63908
29.8391969203949	15.18083
29.8548269271851	13.62729
29.8704469203949	12.06185
29.8860769271851	10.67996
29.9016969203949	9.666117
29.9173269271851	9.136792
29.9329569339752	8.998706
29.9485769271851	8.99435
29.9642069339752	8.842796
29.9798269271851	8.311058
29.9954569339752	7.358533
30.0110769271851	6.083906
30.0267069339752	4.679413
30.0423369407654	3.289981
30.0579569339752	2.02733
30.0735869407654	0.9016619
30.0892069339752	-0.09428024
30.1048369407654	-1.010381
30.1204569339752	-1.912136
30.1360869407654	-2.871812
30.1517169475555	-3.931258
30.1673369407654	-5.063333
30.1829669475555	-6.133041
30.1985869407654	-6.9336
30.2142169475555	-7.300868
30.2298369407654	-7.162523
30.2454669475555	-6.645185
30.2610969543457	-6.01737
30.2767169475555	-5.568258
30.2923469543457	-5.467978
30.3079669475555	-5.658113
30.3235969543457	-5.816357
30.3392169475555	-5.472582
30.3548469543457	-4.147203
30.3704769611359	-1.540728
30.3860969543457	2.404558
30.4017269611359	7.46014
30.4173469543457	13.26522
30.4329769611359	19.4285
30.4485969543457	25.63492
30.4642269611359	31.69361
30.479856967926	37.49701
30.4954769611359	42.96078
30.511106967926	47.96407
30.5267269611359	52.30074
30.542356967926	55.66858
30.5579769611359	57.75437
30.573606967926	58.29308
30.5892369747162	57.1593
30.604856967926	54.43058
30.6204869747162	50.36911
30.636106967926	45.35477
30.6517369747162	39.77154
30.667356967926	33.89236
30.6829869747162	27.85022
30.6986169815063	21.7466
30.7142369747162	15.61385
30.7298669815063	9.550095
30.7454869747162	3.683151
30.7611169815063	-1.901024
30.7767369747162	-7.136177
30.7923669815063	-12.05437
30.8079969882965	-16.7197
30.8236169815063	-21.22631
30.8392469882965	-25.64526
30.8548669815063	-30.01892
30.8704969882965	-34.29095
30.8861169815063	-38.32798
30.9017469882965	-41.97213
30.9173769950867	-45.04237
30.9329969882965	-47.41023
30.9486269950867	-49.02088
30.9642469882965	-49.89647
30.9798769950867	-50.04478
30.9954969882965	-49.47292
31.0111269950867	-48.16705
31.0267570018768	-46.14888
31.0423769950867	-43.60042
31.0580070018768	-40.82526
31.0736269950867	-38.20663
31.0892570018768	-36.06808
31.1048769950867	-34.62065
31.1205070018768	-33.86513
31.136137008667	-33.68317
31.1517570018768	-33.87589
31.167387008667	-34.22289
31.1830070018768	-34.52272
31.198637008667	-34.52203
31.2142570018768	-33.93582
31.229887008667	-32.47017
31.2455170154572	-29.94618
31.261137008667	-26.37019
31.2767670154572	-21.97983
31.292387008667	-17.18033
31.3080170154572	-12.35327
31.323637008667	-7.747635
31.3392670154572	-3.3871
31.3548970222473	0.8372192
31.3705170154572	5.052078
31.3861470222473	9.266083
31.4017670154572	13.35083
31.4173970222473	17.03998
31.4330170154572	20.06221
31.4486470222473	22.24472
31.4642770290375	23.54048
31.4798970222473	24.02789
31.4955270290375	23.8793
31.5111470222473	23.27986
31.5267770290375	22.40871
31.5423970222473	21.40549
31.5580270290375	20.37549
31.5736570358276	19.39273
31.5892770290375	18.51218
31.6049070358276	17.75502
31.6205270290375	17.09906
31.6361570358276	16.45895
31.6517770290375	15.69943
31.6674070358276	14.65265
31.6830370426178	13.19261
31.6986570358276	11.32303
31.7142870426178	9.166611
31.7299070358276	6.937012
31.7455370426178	4.835098
31.7611570358276	2.965302
31.7767870426178	1.321457
31.792417049408	-0.1898041
31.8080370426178	-1.646469
31.823667049408	-3.094284
31.8392870426178	-4.520477
31.854917049408	-5.905701
31.8705370426178	-7.237885
31.886167049408	-8.54184
31.9017970561981	-9.830185
31.917417049408	-11.11618
31.9330470561981	-12.4285
31.948667049408	-13.81526
31.9642970561981	-15.34978
31.9799268245697	-17.10966
31.9955470561981	-19.071
32.0111768245697	-21.08904
32.0267970561981	-22.87006
32.0424268245697	-24.03819
32.0580470561981	-24.26601
32.0736768245697	-23.3434
32.0893068313599	-21.28145
32.1049268245697	-18.2729
32.1205568313599	-14.68268
32.1361768245697	-10.90215
32.1518068313599	-7.235245
32.1674268245697	-3.80658
32.1830568313599	-0.5743408
32.19868683815	2.590805
32.2143068313599	5.799957
32.22993683815	9.009369
32.2455568313599	12.04845
32.26118683815	14.65033
32.2768068313599	16.57678
32.29243683815	17.70007
32.3080668449402	18.04329
32.32368683815	17.76198
32.3393168449402	17.09525
32.35493683815	16.28127
32.3705668449402	15.48309
32.38618683815	14.767
32.4018168449402	14.07594
32.4174468517303	13.31845
32.4330668449402	12.42651
32.4486968517303	11.4064
32.4643168449402	10.32616
32.4799468517303	9.271179
32.4955668449402	8.223343
32.5111968517303	7.040405
32.5268268585205	5.556335
32.5424468517303	3.654541
32.5580768585205	1.425568
32.5736968517303	-0.8777618
32.5893268585205	-2.929062
32.6049468517303	-4.499466
32.6205768585205	-5.5495
32.6362068653107	-6.262421
32.6518268585205	-6.904572
32.6674568653107	-7.693039
32.6830768585205	-8.70929
32.6987068653107	-9.866302
32.7143268585205	-11.00682
32.7299568653107	-11.98442
32.7455868721008	-12.76788
32.7612068653107	-13.42583
32.7768368721008	-14.13582
32.7924568653107	-15.06424
32.8080868721008	-16.31653
32.8237068653107	-17.89038
32.8393368721008	-19.62654
32.854966878891	-21.21112
32.8705868721008	-22.24744
32.886216878891	-22.34021
32.9018368721008	-21.2478
32.917466878891	-18.95486
32.9330868721008	-15.68951
32.948716878891	-11.83147
32.9643468856812	-7.822464
32.979966878891	-4.005951
32.9955968856812	-0.5462341
33.011216878891	2.516724
33.0268468856812	5.25621
33.042466878891	7.744431
33.0580968856812	10.00929
33.0737268924713	12.0132
33.0893468856812	13.69728
33.1049768924713	14.96667
33.1205968856812	15.75624
33.1362268924713	16.03625
33.1518468856812	15.79991
33.1674768924713	15.11429
33.1831068992615	14.09181
33.1987268924713	12.8956
33.2143568992615	11.69543
33.2299768924713	10.66728
33.2456068992615	9.923431
33.2612268924713	9.504211
33.2768568992615	9.343842
33.2924869060516	9.26918
33.3081068992615	9.096756
33.3237369060516	8.660309
33.3393568992615	7.873993
33.3549869060516	6.72998
33.3706068992615	5.311295
33.3862369060516	3.737869
33.4018669128418	2.139954
33.4174869060516	0.6522369
33.4331169128418	-0.6407318
33.4487369060516	-1.721603
33.4643669128418	-2.606842
33.4799869060516	-3.378357
33.4956169128418	-4.125778
33.511246919632	-4.945313
33.5268669128418	-5.913116
33.542496919632	-7.091492
33.5581169128418	-8.474289
33.573746919632	-9.998108
33.5893669128418	-11.5455
33.604996919632	-12.97177
33.6206269264221	-14.21513
33.636246919632	-15.33415
33.6518769264221	-16.55003
33.667496919632	-18.13332
33.6831269264221	-20.28867
33.698746919632	-22.95267
33.7143769264221	-25.76654
33.7300069332123	-28.1433
33.7456269264221	-29.45201
33.7612569332123	-29.27083
33.7768769264221	-27.48964
33.7925069332123	-24.3484
33.8081269264221	-20.27763
33.8237569332123	-15.75076
33.8393869400024	-11.13849
33.8550069332123	-6.669891
33.8706369400024	-2.437012
33.8862569332123	1.519379
33.9018869400024	5.197433
33.9175069332123	8.596741
33.9331369400024	11.71909
33.9487669467926	14.57379
33.9643869400024	17.13402
33.9800169467926	19.28751
33.9956369400024	20.86636
34.0112669467926	21.6795
34.0268869400024	21.61359
34.0425169467926	20.74232
34.0581469535828	19.3075
34.0737669467926	17.66635
34.0893969535828	16.15482
34.1050169467926	14.98061
34.1206469535828	14.18581
34.1362769603729	13.67509
34.1518969535828	13.29521
34.1675269603729	12.89844
34.1831469535828	12.36382
34.1987769603729	11.60774
34.2143969535828	10.57771
34.2300269603729	9.221054
34.2456569671631	7.529861
34.2612769603729	5.552292
34.2769069671631	3.422928
34.2925269603729	1.317719
34.3081569671631	-0.5537567
34.3237769603729	-2.043137
34.3394069671631	-3.140121
34.3550369739532	-3.980743
34.3706569671631	-4.793137
34.3862869739532	-5.815872
34.4019069671631	-7.1819
34.4175369739532	-8.846115
34.4331569671631	-10.62767
34.4487869739532	-12.29214
34.4644169807434	-13.62617
34.4800369739532	-14.58206
34.4956669807434	-15.295
34.5112869739532	-16.0152
34.5269169807434	-17.07045
34.5425369739532	-18.69885
34.5581669807434	-20.96945
34.5737969875336	-23.73326
34.5894169807434	-26.64699
34.6050469875336	-29.19594
34.6206669807434	-30.81747
34.6362969875336	-31.03404
34.6519169807434	-29.53636
34.6675469875336	-26.30896
34.6831769943237	-21.66608
34.6987969875336	-16.14781
34.7144269943237	-10.4006
34.7300469875336	-4.98674
34.7456769943237	-0.2476807
34.7612969875336	3.752991
34.7769269943237	7.178009
34.7925570011139	10.25499
34.8081769943237	13.13275
34.8238070011139	15.77034
34.8394269943237	17.98709
34.8550570011139	19.56715
34.8706769943237	20.39198
34.8863070011139	20.50298
34.9019370079041	20.07475
34.9175570011139	19.38251
34.9331870079041	18.65915
34.9488070011139	18.01839
34.9644370079041	17.44079
34.9800570011139	16.84438
34.9956870079041	16.1214
35.0113170146942	15.23071
35.0269370079041	14.22786
35.0425670146942	13.19427
35.0581870079041	12.21365
35.0738170146942	11.32397
35.0894370079041	10.45409
35.1050670146942	9.474701
35.1206970214844	8.287361
35.1363170146942	6.858292
35.1519470214844	5.282974
35.1675670146942	3.746048
35.1831970214844	2.403427
35.1988170146942	1.302078
35.2144470214844	0.3359299
35.2300770282745	-0.6818619
35.2456970214844	-1.962189
35.2613270282745	-3.594345
35.2769470214844	-5.51619
35.2925770282745	-7.528854
35.3081970214844	-9.407768
35.3238270282745	-11.03308
35.3394570350647	-12.42418
35.3550770282745	-13.70947
35.3707070350647	-15.06081
35.3863270282745	-16.59708
35.4019570350647	-18.42181
35.4175770282745	-20.58319
35.4332070350647	-23.0685
35.4488370418549	-25.75283
35.4644570350647	-28.34492
35.4800870418549	-30.33484
35.4957070350647	-31.13143
35.5113370418549	-30.26939
35.5269570350647	-27.54897
35.5425870418549	-23.21506
35.558217048645	-17.84544
35.5738370418549	-12.1164
35.589467048645	-6.569687
35.6050870418549	-1.447388
35.620717048645	3.292015
35.6363370418549	7.79425
35.651967048645	12.12321
35.6675970554352	16.1676
35.683217048645	19.66063
35.6988470554352	22.27052
35.714467048645	23.78591
35.7300970554352	24.18314
35.745717048645	23.6823
35.7613470554352	22.69592
35.7769768238068	21.63982
35.7925970554352	20.8437
35.8082268238068	20.42583
35.8238470554352	20.32997
35.8394768238068	20.34581
35.8550970554352	20.26848
35.8707268238068	19.94978
35.8863568305969	19.34432
35.9019768238068	18.47553
35.9176068305969	17.34514
35.9332268238068	15.94034
35.9488568305969	14.20399
35.9644768238068	12.12355
35.9801068305969	9.782467
35.9957368373871	7.374619
36.0113568305969	5.108494
36.0269868373871	3.137722
36.0426068305969	1.492222
36.0582368373871	0.02148438
36.0738568305969	-1.484852
36.0894868373871	-3.205708
36.1051168441772	-5.225502
36.1207368373871	-7.461224
36.1363668441772	-9.724346
36.1519868373871	-11.79789
36.1676168441772	-13.50367
36.1832368373871	-14.78083
36.1988668441772	-15.73312
36.2144968509674	-16.53444
36.2301168441772	-17.43364
36.2457468509674	-18.70496
36.2613668441772	-20.54815
36.2769968509674	-23.0588
36.2926168441772	-26.13854
36.3082468509674	-29.43193
36.3238768577576	-32.33854
36.3394968509674	-34.16925
36.3551268577576	-34.31373
36.3707468509674	-32.46234
36.3863768577576	-28.71862
36.4019968509674	-23.55875
36.4176268577576	-17.67178
36.4332568645477	-11.66492
36.4488768577576	-5.903137
36.4645068645477	-0.4860764
36.4801268577576	4.672573
36.4957568645477	9.667135
36.5113768577576	14.44788
36.5270068645477	18.7996
36.5426368713379	22.44901
36.5582568645477	25.12827
36.5738868713379	26.72254
36.5895068645477	27.33656
36.6051368713379	27.19127
36.6207568645477	26.59933
36.6363868713379	25.805
36.6520168781281	24.9387
36.6676368713379	24.03182
36.6832668781281	23.07733
36.6988868713379	22.08001
36.7145168781281	21.10653
36.7301368713379	20.2477
36.7457668781281	19.5021
36.7613968849182	18.79768
36.7770168781281	17.94819
36.7926468849182	16.71078
36.8082668781281	14.91911
36.8238968849182	12.56324
36.8395268917084	9.768923
36.8551468849182	6.8038
36.8707768917084	3.944636
36.8863968849182	1.42457
36.9020268917084	-0.6056161
36.9176468849182	-2.150939
36.9332768917084	-3.360703
36.9489068984985	-4.456661
36.9645268917084	-5.682146
36.9801568984985	-7.174181
36.9957768917084	-8.9086
37.0114068984985	-10.71201
37.0270268917084	-12.37377
37.0426568984985	-13.77297
37.0582869052887	-14.93309
37.0739068984985	-16.05831
37.0895369052887	-17.42387
37.1051568984985	-19.2641
37.1207869052887	-21.65618
37.1364068984985	-24.5153
37.1520369052887	-27.63485
37.1676669120789	-30.67752
37.1832869052887	-33.24714
37.1989169120789	-34.92053
37.2145369052887	-35.25093
37.2301669120789	-33.85759
37.2457869052887	-30.58791
37.2614169120789	-25.55932
37.277046918869	-19.17053
37.2926669120789	-12.06478
37.308296918869	-4.89599
37.3239169120789	1.783144
37.339546918869	7.624382
37.3551669120789	12.56757
37.370796918869	16.72315
37.3864269256592	20.27347
37.402046918869	23.33779
37.4176769256592	25.91918
37.433296918869	27.88206
37.4489269256592	29.08467
37.464546918869	29.42621
37.4801769256592	28.95493
37.4958069324493	27.85074
37.5114269256592	26.37091
37.5270569324493	24.7547
37.5426769256592	23.15693
37.5583069324493	21.64088
37.5739269256592	20.22754
37.5895569324493	18.92989
37.6051869392395	17.7641
37.6208069324493	16.73122
37.6364369392395	15.80659
37.6520569324493	14.86578
37.6676869392395	13.75939
37.6833069324493	12.35869
37.6989369392395	10.6017
37.7145669460297	8.529705
37.7301869392395	6.273415
37.7458169460297	4.009857
37.7614369392395	1.884426
37.7770669460297	-0.01338959
37.7926869392395	-1.740314
37.8083169460297	-3.427437
37.8239469528198	-5.205654
37.8395669460297	-7.192051
37.8551969528198	-9.355247
37.8708169460297	-11.59148
37.8864469528198	-13.74987
37.9020669460297	-15.76993
37.9176969528198	-17.63127
37.93332695961	-19.38876
37.9489469528198	-21.08096
37.96457695961	-22.69986
37.9801969528198	-24.24704
37.99582695961	-25.75476
38.0114469528198	-27.36722
38.02707695961	-29.27026
38.0427069664001	-31.6284
38.05832695961	-34.41785
38.0739569664001	-37.31673
38.08957695961	-39.72227
38.1052069664001	-40.90895
38.12082695961	-40.30407
38.1364569664001	-37.65324
38.1520869731903	-33.16833
38.1677069664001	-27.39462
38.1833369731903	-21.03259
38.1989569664001	-14.69315
38.2145869731903	-8.75238
38.2302069664001	-3.360352
38.2458369731903	1.443291
38.2614669799805	5.623604
38.2770869731903	9.104553
38.2927169799805	11.75135
38.3083369731903	13.48374
38.3239669799805	14.27629
38.3395869731903	14.15755
38.3552169799805	13.22479
38.3708469867706	11.60837
38.3864669799805	9.491982
38.4020969867706	7.121826
38.4177169799805	4.812614
38.4333469867706	2.865883
38.4489669799805	1.497467
38.4645969867706	0.7738037
38.4802269935608	0.6399231
38.4958469867706	0.9599838
38.5114769935608	1.606987
38.5270969867706	2.514839
38.5427269935608	3.674103
38.5583469867706	5.096603
38.5739769935608	6.746857
38.589607000351	8.520279
38.6052269935608	10.26753
38.620857000351	11.79906
38.6364769935608	12.99626
38.652107000351	13.79045
38.6677269935608	14.16373
38.683357000351	14.1382
38.6989870071411	13.72734
38.714607000351	12.96175
38.7302370071411	11.88968
38.745857000351	10.61493
38.7614870071411	9.248352
38.777107000351	7.91864
38.7927370071411	6.667145
38.8083670139313	5.499359
38.8239870071411	4.373901
38.8396170139313	3.226028
38.8552370071411	2.022095
38.8708670139313	0.7538452
38.8864870071411	-0.6217651
38.9021170139313	-2.193787
38.9177470207214	-4.083618
38.9333670139313	-6.400528
38.9489970207214	-9.09996
38.9646170139313	-11.96494
38.9802470207214	-14.56296
38.9958670139313	-16.36484
39.0114970207214	-16.88156
39.0271270275116	-15.79306
39.0427470207214	-13.06268
39.0583770275116	-8.89679
39.0739970207214	-3.67746
39.0896270275116	2.155029
39.1052570343018	8.191467
39.1208770275116	14.08186
39.1365070343018	19.55943
39.1521270275116	24.42549
39.1677570343018	28.58353
39.1833770275116	32.02664
39.1990070343018	34.77148
39.2146370410919	36.85513
39.2302570343018	38.22034
39.2458870410919	38.76479
39.2615070343018	38.39159
39.2771370410919	37.08865
39.2927570343018	35.01071
39.3083870410919	32.438
39.3240170478821	29.71216
39.3396370410919	27.09885
39.3552670478821	24.75671
39.3708870410919	22.73022
39.3865170478821	21.01073
39.4021370410919	19.59253
39.4177670478821	18.46249
39.4333970546722	17.55588
39.4490170478821	16.71909
39.4646470546722	15.73792
39.4802670478821	14.40939
39.4958970546722	12.63556
39.5115170478821	10.47423
39.5271470546722	8.127594
39.5427768230438	5.851151
39.5583970546722	3.831696
39.5740268230438	2.138763
39.5896470546722	0.7314301
39.6052768230438	-0.5077667
39.6208970546722	-1.670364
39.6365268230438	-2.807236
39.652156829834	-3.964905
39.6677768230438	-5.206192
39.683406829834	-6.596191
39.6990268230438	-8.170288
39.714656829834	-9.86557
39.7302768230438	-11.54297
39.745906829834	-13.05476
39.7615368366241	-14.30824
39.777156829834	-15.38948
39.7927868366241	-16.48413
39.808406829834	-17.81143
39.8240368366241	-19.50331
39.839656829834	-21.51053
39.8552868366241	-23.55476
39.8709168434143	-25.20018
39.8865368366241	-25.96123
39.9021668434143	-25.39369
39.9177868366241	-23.22348
39.9334168434143	-19.42065
39.9490368366241	-14.2323
39.9646668434143	-8.148819
39.9802968502045	-1.781326
39.9959168434143	4.298599
40.0115468502045	9.68631
40.0271668434143	14.22617
40.0427968502045	17.97021
40.0584168434143	21.08127
40.0740468502045	23.69753
40.0896768569946	25.83994
40.1052968502045	27.39558
40.1209268569946	28.17712
40.1365468502045	28.05278
40.1521768569946	27.01775
40.1677968502045	25.26591
40.1834268569946	23.1265
40.1990568637848	20.95226
40.2146768569946	18.96091
40.2303068637848	17.22685
40.2459268569946	15.66177
40.2615568637848	14.18434
40.2771768569946	12.73592
40.2928068637848	11.35466
40.308436870575	10.11929
40.3240568637848	9.035095
40.339686870575	8.014832
40.3553068637848	6.856735
40.370936870575	5.384598
40.3865568637848	3.541611
40.402186870575	1.460159
40.4178168773651	-0.6067047
40.433436870575	-2.376541
40.4490668773651	-3.649734
40.464686870575	-4.425735
40.4803168773651	-4.811752
40.495936870575	-5.01239
40.5115668773651	-5.246155
40.5271968841553	-5.641205
40.5428168773651	-6.22316
40.5584468841553	-6.983261
40.5740668773651	-7.858017
40.5896968841553	-8.793839
40.6053168773651	-9.804855
40.6209468841553	-10.90181
40.6365768909454	-12.09923
40.6521968841553	-13.45125
40.6678268909454	-15.00784
40.6834468841553	-16.79617
40.6990768909454	-18.78055
40.7146968841553	-20.80038
40.7303268909454	-22.5123
40.7459568977356	-23.50433
40.7615768909454	-23.33339
40.7772068977356	-21.73224
40.7928268909454	-18.72105
40.8084568977356	-14.57974
40.8240768909454	-9.785736
40.8397068977356	-4.858688
40.8553369045258	-0.2278442
40.8709568977356	3.839508
40.8865869045258	7.193161
40.9022068977356	9.805038
40.9178369045258	11.68599
40.9334568977356	12.89464
40.9490869045258	13.55722
40.9647169113159	13.78764
40.9803369045258	13.70862
40.9959669113159	13.41063
41.0115869045258	12.90973
41.0272169113159	12.17377
41.0428369045258	11.20122
41.0584669113159	10.02173
41.0740969181061	8.751633
41.0897169113159	7.581146
41.1053469181061	6.693893
41.1209669113159	6.206573
41.1365969181061	6.122055
41.1522169113159	6.312363
41.1678469181061	6.517273
41.1834769248962	6.49752
41.1990969181061	6.103348
41.2147269248962	5.290627
41.2303469181061	4.16597
41.2459769248962	2.865509
41.2615969181061	1.5131
41.2772269248962	0.176033
41.2928569316864	-1.112267
41.3084769248962	-2.38028
41.3241069316864	-3.615356
41.3397269248962	-4.793396
41.3553569316864	-5.885254
41.3709769248962	-6.827583
41.3866069316864	-7.599991
41.4022369384766	-8.175934
41.4178569316864	-8.589134
41.4334869384766	-8.940704
41.4491069316864	-9.383888
41.4647369384766	-10.07867
41.4803669452667	-11.16199
41.4959869384766	-12.64494
41.5116169452667	-14.3894
41.5272369384766	-16.16576
41.5428669452667	-17.65327
41.5584869384766	-18.54014
41.5741169452667	-18.55744
41.5897469520569	-17.55863
41.6053669452667	-15.50705
41.6209969520569	-12.5598
41.6366169452667	-9.014786
41.6522469520569	-5.225082
41.6678669452667	-1.530647
41.6834969520569	1.842552
41.699126958847	4.812126
41.7147469520569	7.417099
41.730376958847	9.669701
41.7459969520569	11.58244
41.761626958847	13.05553
41.7772469520569	13.94596
41.792876958847	14.17536
41.8085069656372	13.73823
41.824126958847	12.73708
41.8397569656372	11.33694
41.855376958847	9.747749
41.8710069656372	8.149727
41.886626958847	6.700081
41.9022569656372	5.515762
41.9178869724274	4.661911
41.9335069656372	4.150757
41.9491369724274	3.915482
41.9647569656372	3.866577
41.9803869724274	3.868973
41.9960069656372	3.818985
42.0116369724274	3.651543
42.0272669792175	3.30497
42.0428869724274	2.759331
42.0585169792175	2.003578
42.0741369724274	1.052551
42.0897669792175	-0.09085846
42.1053869724274	-1.35955
42.1210169792175	-2.696144
42.1366469860077	-4.025536
42.1522669792175	-5.289482
42.1678969860077	-6.455498
42.1835169792175	-7.538063
42.1991469860077	-8.5784
42.2147669792175	-9.623444
42.2303969860077	-10.73512
42.2460269927979	-11.92881
42.2616469860077	-13.23565
42.2772769927979	-14.71937
42.2928969860077	-16.43285
42.3085269927979	-18.3793
42.3241469860077	-20.42197
42.3397769927979	-22.25677
42.355406999588	-23.43566
42.3710269927979	-23.49974
42.386656999588	-22.15291
42.4022769927979	-19.37125
42.417906999588	-15.44253
42.4335269927979	-10.83093
42.449156999588	-6.034637
42.4647870063782	-1.445869
42.480406999588	2.722008
42.4960370063782	6.414375
42.511656999588	9.670334
42.5272870063782	12.53695
42.542906999588	14.999
42.5585370063782	16.98224
42.5741670131683	18.38961
42.5897870063782	19.12086
42.6054170131683	19.13519
42.6210370063782	18.50987
42.6366670131683	17.41577
42.6522870063782	16.0846
42.6679170131683	14.75269
42.6835470199585	13.5846
42.6991670131683	12.67668
42.7147970199585	12.04507
42.7304170131683	11.65438
42.7460470199585	11.4201
42.7616670131683	11.21704
42.7772970199585	10.86382
42.7929270267487	10.18796
42.8085470199585	9.079044
42.8241770267487	7.534603
42.8397970199585	5.686111
42.8554270267487	3.670628
42.8710470199585	1.614113
42.8866770267487	-0.4534111
42.9023070335388	-2.533772
42.9179270267487	-4.64753
42.9335570335388	-6.791595
42.9491770267487	-8.933784
42.9648070335388	-11.06047
42.9804270267487	-13.16054
42.9960570335388	-15.22897
43.011687040329	-17.21018
43.0273070335388	-18.97094
43.042937040329	-20.33952
43.0585570335388	-21.23468
43.074187040329	-21.68169
43.0898070335388	-21.8471
43.105437040329	-22.0056
43.1210670471191	-22.41538
43.136687040329	-23.24472
43.1523170471191	-24.48023
43.167937040329	-25.90414
43.1835670471191	-27.1004
43.199187040329	-27.54247
43.2148170471191	-26.75589
43.2304470539093	-24.48059
43.2460670471191	-20.79484
43.2616970539093	-16.07705
43.2773170471191	-10.8802
43.2929470539093	-5.709793
43.3085670471191	-0.8816032
43.3241970539093	3.498417
43.3398268222809	7.471439
43.3554470539093	11.05154
43.3710768222809	14.16823
43.3866970539093	16.66339
43.4023268222809	18.4101
43.4179470539093	19.34724
43.4335768222809	19.55321
43.449206829071	19.15006
43.4648268222809	18.28112
43.480456829071	17.08639
43.4960768222809	15.72081
43.511706829071	14.35485
43.5273268222809	13.15554
43.542956829071	12.26249
43.5585868358612	11.68338
43.574206829071	11.36035
43.5898368358612	11.139
43.605456829071	10.88697
43.6210868358612	10.51505
43.636706829071	9.978638
43.6523368358612	9.259232
43.6679668426514	8.317703
43.6835868358612	7.121666
43.6992168426514	5.66106
43.7148368358612	4.040146
43.7304668426514	2.404202
43.7460868358612	0.8964539
43.7617168426514	-0.4117661
43.7773468494415	-1.592697
43.7929668426514	-2.802456
43.8085968494415	-4.201359
43.8242168426514	-5.846214
43.8398468494415	-7.686989
43.8554668426514	-9.528702
43.8710968494415	-11.15748
43.8867268562317	-12.43588
43.9023468494415	-13.30958
43.9179768562317	-13.88075
43.9335968494415	-14.33236
43.9492268562317	-14.87761
43.9648568630219	-15.72428
43.9804768562317	-17.01872
43.9961068630219	-18.75227
44.0117268562317	-20.72211
44.0273568630219	-22.49832
44.0429768562317	-23.50919
44.0586068630219	-23.24982
44.074236869812	-21.41996
44.0898568630219	-18.09168
44.105486869812	-13.65117
44.1211068630219	-8.676369
44.136736869812	-3.711739
44.1523568630219	0.864212
44.167986869812	4.937508
44.1836168766022	8.573471
44.199236869812	11.88821
44.2148668766022	14.99901
44.230486869812	17.89037
44.2461168766022	20.41741
44.261736869812	22.35008
44.2773668766022	23.46808
44.2929968833923	23.64149
44.3086168766022	22.91599
44.3242468833923	21.51846
44.3398668766022	19.71964
44.3554968833923	17.78149
44.3711168766022	15.8726
44.3867468833923	14.04259
44.4023768901825	12.32713
44.4179968833923	10.79292
44.4336268901825	9.533356
44.4492468833923	8.649712
44.4648768901825	8.139236
44.4804968833923	7.86245
44.4961268901825	7.557266
44.5117568969727	6.949738
44.5273768901825	5.885208
44.5430068969727	4.392998
44.5586268901825	2.680473
44.5742568969727	1.029022
44.5898768901825	-0.309845
44.6055068969727	-1.208344
44.6211369037628	-1.720955
44.6367568969727	-2.008873
44.6523869037628	-2.350914
44.6680068969727	-2.963524
44.6836369037628	-3.955193
44.6992568969727	-5.292358
44.7148869037628	-6.808281
44.730516910553	-8.289345
44.7461369037628	-9.551865
44.761766910553	-10.53542
44.7773869037628	-11.29388
44.793016910553	-11.99245
44.8086369037628	-12.82505
44.824266910553	-13.97092
44.8398969173431	-15.50546
44.855516910553	-17.37506
44.8711469173431	-19.35079
44.886766910553	-21.01482
44.9023969173431	-21.86147
44.918016910553	-21.41502
44.9336469173431	-19.36277
44.9492769241333	-15.68951
44.9648969173431	-10.73183
44.9805269241333	-5.057663
44.9961469173431	0.6955795
45.0117769241333	5.987137
45.0273969173431	10.54681
45.0430269241333	14.35621
45.0586569309235	17.61677
45.0742769241333	20.53907
45.0899069309235	23.22391
45.1055269241333	25.57275
45.1211569309235	27.31856
45.1367769241333	28.16116
45.1524069309235	27.87953
45.1680369377136	26.49516
45.1836569309235	24.21213
45.1992869377136	21.37713
45.2149069309235	18.32758
45.2305369377136	15.29047
45.2461569309235	12.3819
45.2617869377136	9.654594
45.2774169445038	7.141182
45.2930369377136	4.858452
45.3086669445038	2.873055
45.3242869377136	1.192558
45.3399169445038	-0.2365646
45.3555369377136	-1.485016
45.3711669445038	-2.666199
45.3867969512939	-3.875183
45.4024169445038	-5.090675
45.4180469512939	-6.24646
45.4336669445038	-7.229721
45.4492969512939	-7.875984
45.4649169445038	-8.098228
45.4805469512939	-7.926376
45.4961769580841	-7.516506
45.5117969512939	-7.120667
45.5274269580841	-6.996399
45.5430469512939	-7.269718
45.5586769580841	-7.905197
45.5742969512939	-8.723537
45.5899269580841	-9.473839
45.6055569648743	-9.967731
45.6211769580841	-10.1314
45.6368069648743	-10.05439
45.6524269580841	-9.934307
45.6680569648743	-9.990105
45.6836769580841	-10.42227
45.6993069648743	-11.33709
45.7149369716644	-12.69797
45.7305569648743	-14.34775
45.7461869716644	-16.02521
45.7618069648743	-17.35884
45.7774369716644	-17.95398
45.7930569648743	-17.45662
45.8086869716644	-15.64103
45.8243169784546	-12.47714
45.8399369716644	-8.196507
45.8555669784546	-3.248619
45.8711869716644	1.868855
45.8868169784546	6.665512
45.9024369716644	10.87199
45.9180669784546	14.44662
45.9336969852448	17.48415
45.9493169784546	20.06544
45.9649469852448	22.14305
45.9805669784546	23.54195
45.9961969852448	24.06479
46.0118169784546	23.66309
46.0274469852448	22.45578
46.0430769920349	20.74558
46.0586969852448	18.90585
46.0743269920349	17.23285
46.0899469852448	15.84433
46.1055769920349	14.69498
46.1212069988251	13.66201
46.1368269920349	12.63367
46.1524569988251	11.54105
46.1680769920349	10.37616
46.1837069988251	9.163841
46.1993269920349	7.915043
46.2149569988251	6.628086
46.2305870056152	5.282932
46.2462069988251	3.83231
46.2618370056152	2.277637
46.2774569988251	0.6413002
46.2930870056152	-1.000526
46.3087069988251	-2.547794
46.3243370056152	-3.886864
46.3399670124054	-4.968784
46.3555870056152	-5.831757
46.3712170124054	-6.5756
46.3868370056152	-7.334335
46.4024670124054	-8.193333
46.4180870056152	-9.171059
46.4337170124054	-10.21733
46.4493470191956	-11.18669
46.4649670124054	-11.97818
46.4805970191956	-12.52718
46.4962170124054	-12.87344
46.5118470191956	-13.11647
46.5274670124054	-13.39411
46.5430970191956	-13.85654
46.5587270259857	-14.62101
46.5743470191956	-15.74939
46.5899770259857	-17.15854
46.6055970191956	-18.63392
46.6212270259857	-19.85137
46.6368470191956	-20.39048
46.6524770259857	-19.86557
46.6681070327759	-18.03945
46.6837270259857	-14.88144
46.6993570327759	-10.6324
46.7149770259857	-5.700813
46.7306070327759	-0.5641708
46.7462270259857	4.344891
46.7618570327759	8.719959
46.777487039566	12.45827
46.7931070327759	15.5702
46.808737039566	18.09727
46.8243570327759	20.05276
46.839987039566	21.36627
46.8556070327759	21.96112
46.871237039566	21.83028
46.8868670463562	21.07229
46.902487039566	19.88917
46.9181170463562	18.54678
46.933737039566	17.22039
46.9493670463562	15.98811
46.964987039566	14.78791
46.9806170463562	13.50191
46.9962470531464	12.04118
47.0118670463562	10.38751
47.0274970531464	8.591581
47.0431170463562	6.726032
47.0587470531464	4.868361
47.0743670463562	3.019621
47.0899970531464	1.15192
47.1056270599365	-0.757143
47.1212470531464	-2.706936
47.1368770599365	-4.605801
47.1524970531464	-6.338337
47.1681270599365	-7.768993
47.1837470531464	-8.792185
47.1993770599365	-9.391777
47.2150068283081	-9.633581
47.2306270599365	-9.657482
47.2462568283081	-9.620331
47.2618770599365	-9.712961
47.2775068283081	-10.03583
47.2931270599365	-10.61916
47.3087568283081	-11.40116
47.3243868350983	-12.27215
47.3400068283081	-13.12079
47.3556368350983	-13.90837
47.3712568283081	-14.64598
47.3868868350983	-15.41872
47.4025068283081	-16.3478
47.4181368350983	-17.5068
47.4337668418884	-18.91718
47.4493868350983	-20.47015
47.4650168418884	-21.9295
47.4806368350983	-22.93527
47.4962668418884	-23.10039
47.5118868350983	-22.04902
47.5275168418884	-19.59091
47.5431468486786	-15.81706
47.5587668418884	-11.0565
47.5743968486786	-5.84665
47.5900168418884	-0.7308931
47.6056468486786	3.884542
47.6212668418884	7.816473
47.6368968486786	11.06004
47.6525268554688	13.72874
47.6681468486786	15.93485
47.6837768554688	17.71723
47.6993968486786	19.06139
47.7150268554688	19.88862
47.7306468486786	20.14825
47.7462768554688	19.8305
47.7619068622589	19.00496
47.7775268554688	17.78616
47.7931568622589	16.33516
47.8087768554688	14.80768
47.8244068622589	13.32591
47.8400268554688	11.95169
47.8556568622589	10.66287
47.8712868690491	9.398466
47.8869068622589	8.093103
47.9025368690491	6.753815
47.9181568622589	5.447905
47.9337868690491	4.274421
47.9494068622589	3.294988
47.9650368690491	2.480087
47.9806668758392	1.736187
47.9962868690491	0.9115353
48.0119168758392	-0.05532169
48.0275368690491	-1.120971
48.0431668758392	-2.153327
48.0587868690491	-2.998433
48.0744168758392	-3.592288
48.0900468826294	-3.987277
48.1056668758392	-4.342687
48.1212968826294	-4.809893
48.1369168758392	-5.507724
48.1525468826294	-6.449064
48.1681668758392	-7.537857
48.1837968826294	-8.669183
48.1994268894196	-9.780445
48.2150468826294	-10.87475
48.2306768894196	-11.97926
48.2462968826294	-13.15814
48.2619268894196	-14.4492
48.2775468826294	-15.88329
48.2931768894196	-17.46426
48.3088068962097	-19.10511
48.3244268894196	-20.65591
48.3400568962097	-21.87535
48.3556768894196	-22.44121
48.3713068962097	-22.04047
48.3869268894196	-20.48526
48.4025568962097	-17.75753
48.4181869029999	-14.04527
48.4338068962097	-9.714359
48.4494369029999	-5.176066
48.4650568962097	-0.8094957
48.4806869029999	3.157162
48.4963068962097	6.640191
48.5119369029999	9.657089
48.52756690979	12.25706
48.5431869029999	14.49114
48.55881690979	16.3551
48.5744369029999	17.7941
48.59006690979	18.74371
48.6056869029999	19.13247
48.62131690979	18.96745
48.6369469165802	18.32378
48.65256690979	17.33204
48.6681969165802	16.16442
48.68381690979	14.99531
48.6994469165802	13.90876
48.71506690979	12.8751
48.7306969165802	11.81413
48.7463269233704	10.62651
48.7619469165802	9.296816
48.7775769233704	7.931444
48.7931969165802	6.65939
48.8088269233704	5.562194
48.8244569301605	4.636337
48.8400769233704	3.722663
48.8557069301605	2.632785
48.8713269233704	1.285842
48.8869569301605	-0.2214875
48.9025769233704	-1.664431
48.9182069301605	-2.768316
48.9338369369507	-3.405202
48.9494569301605	-3.646263
48.9650869369507	-3.731654
48.9807069301605	-3.983017
48.9963369369507	-4.647865
49.0119569301605	-5.757545
49.0275869369507	-7.158106
49.0432169437408	-8.580436
49.0588369369507	-9.731853
49.0744669437408	-10.49273
49.0900869369507	-10.90028
49.1057169437408	-11.17919
49.1213369369507	-11.58994
49.1369669437408	-12.39467
49.152596950531	-13.67669
49.1682169437408	-15.36698
49.183846950531	-17.20048
49.1994669437408	-18.77504
49.215096950531	-19.67241
49.2307169437408	-19.49714
49.246346950531	-18.03701
49.2619769573212	-15.3077
49.277596950531	-11.56666
49.2932269573212	-7.217205
49.308846950531	-2.715286
49.3244769573212	1.588766
49.340096950531	5.540818
49.3557269573212	9.096148
49.3713569641113	12.28493
49.3869769573212	15.09829
49.4026069641113	17.45972
49.4182269573212	19.25655
49.4338569641113	20.41531
49.4494769573212	20.90898
49.4651069641113	20.78766
49.4807369709015	20.17441
49.4963569641113	19.16887
49.5119869709015	17.88268
49.5276069641113	16.43482
49.5432369709015	14.91621
49.5588569641113	13.44174
49.5744869709015	12.09424
49.5901169776917	10.9155
49.6057369709015	9.882973
49.6213669776917	8.996721
49.6369869709015	8.194764
49.6526169776917	7.443625
49.6682369709015	6.693341
49.6838669776917	5.892426
49.6994969844818	4.990003
49.7151169776917	3.941526
49.7307469844818	2.705473
49.7463669776917	1.25942
49.7619969844818	-0.3436325
49.7776169776917	-2.011683
49.7932469844818	-3.637978
49.808876991272	-5.099454
49.8244969844818	-6.360334
49.840126991272	-7.415325
49.8557469844818	-8.338618
49.871376991272	-9.236757
49.8869969844818	-10.19247
49.902626991272	-11.18897
49.9182569980621	-12.1448
49.933876991272	-12.9156
49.9495069980621	-13.42004
49.965126991272	-13.68951
49.9807569980621	-13.84944
49.996376991272	-14.10761
50.0120069980621	-14.67243
50.0276370048523	-15.65468
50.0432569980621	-17.01669
50.0588870048523	-18.60389
50.0745069980621	-20.14498
50.0901370048523	-21.2893
50.1057569980621	-21.66259
50.1213870048523	-20.94922
50.1370170116425	-18.9642
50.1526370048523	-15.72904
50.1682670116425	-11.51028
50.1838870048523	-6.756524
50.1995170116425	-1.995504
50.2151370048523	2.333425
50.2307670116425	5.984834
50.2463970184326	8.939842
50.2620170116425	11.33823
50.2776470184326	13.38746
50.2932670116425	15.22771
50.3088970184326	16.86752
50.3245170116425	18.18828
50.3401470184326	18.99248
50.3557770252228	19.14639
50.3713970184326	18.6207
50.3870270252228	17.55744
50.4026470184326	16.20951
50.4182770252228	14.86558
50.4338970184326	13.74408
50.4495270252228	12.90804
50.4651570320129	12.31615
50.4807770252228	11.8103
50.4964070320129	11.24914
50.5120270252228	10.49665
50.5276570320129	9.49127
50.5432770252228	8.223333
50.5589070320129	6.763319
50.5745370388031	5.207632
50.5901570320129	3.683038
50.6057870388031	2.327782
50.6214070320129	1.201671
50.6370370388031	0.3380842
50.6526570320129	-0.301815
50.6682870388031	-0.7577381
50.6839170455933	-1.112211
50.6995370388031	-1.416941
50.7151670455933	-1.779708
50.7307870388031	-2.275452
50.7464170455933	-2.964653
50.7620370388031	-3.887915
50.7776670455933	-5.000566
50.7932970523834	-6.223787
50.8089170455933	-7.435568
50.8245470523834	-8.531362
50.8401670455933	-9.461877
50.8557970523834	-10.24385
50.8714170455933	-10.91455
50.8870470523834	-11.50592
50.9026770591736	-12.12111
50.9182970523834	-12.86489
50.9339270591736	-13.88621
50.9495470523834	-15.31027
50.9651770591736	-17.08065
50.9808068275452	-18.93169
50.9964270591736	-20.37766
51.0120568275452	-20.88934
51.0276770591736	-20.05892
51.0433068275452	-17.81102
51.0589270591736	-14.34127
51.0745568275452	-10.12005
51.0901868343353	-5.638557
51.1058068275452	-1.275535
51.1214368343353	2.738017
51.1370568275452	6.323705
51.1526868343353	9.449518
51.1683068275452	12.13002
51.1839368343353	14.32046
51.1995668411255	16.06313
51.2151868343353	17.33942
51.2308168411255	18.13345
51.2464368343353	18.42662
51.2620668411255	18.19746
51.2776868343353	17.48983
51.2933168411255	16.42661
51.3089468479156	15.18167
51.3245668411255	13.93178
51.3401968479156	12.82512
51.3558168411255	11.88658
51.3714468479156	11.03333
51.3870668411255	10.1851
51.4026968479156	9.253266
51.4183268547058	8.192858
51.4339468479156	7.029712
51.4495768547058	5.795169
51.4651968479156	4.559621
51.4808268547058	3.40815
51.4964468479156	2.42075
51.5120768547058	1.591282
51.527706861496	0.900795
51.5433268547058	0.2393818
51.558956861496	-0.4574165
51.5745768547058	-1.199778
51.590206861496	-1.906361
51.6058268547058	-2.471485
51.621456861496	-2.870655
51.6370868682861	-3.198088
51.652706861496	-3.647053
51.6683368682861	-4.362764
51.683956861496	-5.38821
51.6995868682861	-6.584023
51.715206861496	-7.713957
51.7308368682861	-8.581499
51.7464668750763	-9.157484
51.7620868682861	-9.62672
51.7777168750763	-10.27186
51.7933368682861	-11.33953
51.8089668750763	-12.9294
51.8245868682861	-14.95555
51.8402168750763	-17.1802
51.8558468818665	-19.26233
51.8714668750763	-20.85708
51.8870968818665	-21.65284
51.9027168750763	-21.401
51.9183468818665	-19.98281
51.9339668750763	-17.43387
51.9495968818665	-13.97491
51.9652268886566	-9.949286
51.9808468818665	-5.750299
51.9964768886566	-1.674953
52.0120968818665	2.090439
52.0277268886566	5.510548
52.0433468818665	8.635872
52.0589768886566	11.54745
52.0746068954468	14.27114
52.0902268886566	16.74627
52.1058568954468	18.86297
52.1214768886566	20.43641
52.1371068954468	21.30899
52.1527268886566	21.3643
52.1683568954468	20.60038
52.1839869022369	19.16108
52.1996068954468	17.31819
52.2152369022369	15.39739
52.2308568954468	13.66892
52.2464869022369	12.29562
52.2621068954468	11.25614
52.2777369022369	10.40484
52.2933669090271	9.553053
52.3089869022369	8.563131
52.3246169090271	7.382387
52.3402369022369	6.019039
52.3558669090271	4.515083
52.3714869022369	2.88784
52.3871169090271	1.177597
52.4027469158173	-0.5724125
52.4183669090271	-2.240564
52.4339969158173	-3.664034
52.4496169090271	-4.682913
52.4652469158173	-5.243494
52.4808669090271	-5.437754
52.4964969158173	-5.496078
52.5121269226074	-5.682468
52.5277469158173	-6.176746
52.5433769226074	-7.026323
52.5589969158173	-8.090805
52.5746269226074	-9.128963
52.5902469158173	-9.919861
52.6058769226074	-10.35271
52.6215069293976	-10.52326
52.6371269226074	-10.66392
52.6527569293976	-11.03611
52.6683769226074	-11.81001
52.6840069293976	-13.05317
52.6996269226074	-14.69834
52.7152569293976	-16.628
52.7308869361877	-18.72202
52.7465069293976	-20.83792
52.7621369361877	-22.7461
52.7777569293976	-24.08155
52.7933869361877	-24.39509
52.8090069293976	-23.28817
52.8246369361877	-20.63104
52.8402669429779	-16.62529
52.8558869361877	-11.769
52.8715169429779	-6.688793
52.8871369361877	-1.868267
52.9027669429779	2.440605
52.9183869361877	6.278332
52.9340169429779	9.783941
52.9496469497681	13.08672
52.9652669429779	16.17241
52.9808969497681	18.90937
52.9965169429779	21.08796
53.0121469497681	22.51564
53.0277669429779	23.13106
53.0433969497681	22.93455
53.0590269565582	22.09203
53.0746469497681	20.81882
53.0902769565582	19.37086
53.1058969497681	17.93725
53.1215269565582	16.63232
53.1371469497681	15.4367
53.1527769565582	14.25333
53.1684069633484	13.03376
53.1840269565582	11.72904
53.1996569633484	10.37289
53.2152769565582	8.987087
53.2309069633484	7.594597
53.2465369701385	6.159576
53.2621569633484	4.622753
53.2777869701385	2.970139
53.2934069633484	1.258427
53.3090369701385	-0.3452778
53.3246569633484	-1.706478
53.3402869701385	-2.73744
53.3559169769287	-3.461931
53.3715369701385	-4.004593
53.3871669769287	-4.498323
53.4027869701385	-5.096891
53.4184169769287	-5.851665
53.4340369701385	-6.759043
53.4496669769287	-7.736753
53.4652969837189	-8.726408
53.4809169769287	-9.670113
53.4965469837189	-10.5665
53.5121669769287	-11.44787
53.5277969837189	-12.35214
53.5434169769287	-13.36301
53.5590469837189	-14.54012
53.574676990509	-15.98011
53.5902969837189	-17.72061
53.605926990509	-19.72752
53.6215469837189	-21.82519
53.637176990509	-23.69918
53.6527969837189	-24.94826
53.668426990509	-25.16134
53.6840569972992	-24.05046
53.699676990509	-21.53776
53.7153069972992	-17.80349
53.730926990509	-13.21349
53.7465569972992	-8.22934
53.762176990509	-3.271076
53.7778069972992	1.347071
53.7934370040894	5.442238
53.8090569972992	8.985525
53.8246870040894	12.02982
53.8403069972992	14.66497
53.8559370040894	16.95503
53.8715569972992	18.84056
53.8871870040894	20.19978
53.9028170108795	20.86418
53.9184370040894	20.71727
53.9340670108795	19.80125
53.9496870040894	18.35719
53.9653170108795	16.73846
53.9809370040894	15.30045
53.9965670108795	14.26538
54.0121970176697	13.62238
54.0278170108795	13.15297
54.0434470176697	12.52489
54.0590670108795	11.46712
54.0746970176697	9.911236
54.0903170108795	8.029528
54.1059470176697	6.155769
54.1215770244598	4.626324
54.1371970176697	3.644962
54.1528270244598	3.177523
54.1684470176697	2.989325
54.1840770244598	2.781887
54.1996970176697	2.318766
54.2153270244598	1.554615
54.23095703125	0.609972
54.2465770244598	-0.3460846
54.26220703125	-1.215897
54.2778270244598	-1.995186
54.29345703125	-2.808563
54.3090770244598	-3.764191
54.32470703125	-4.919928
54.3403370380402	-6.276703
54.35595703125	-7.741041
54.3715870380402	-9.261499
54.38720703125	-10.81276
54.4028370380402	-12.40494
54.41845703125	-14.03279
54.4340870380402	-15.69864
54.4497170448303	-17.31778
54.4653370380402	-18.79418
54.4809670448303	-20.08788
54.4965870380402	-21.19207
54.5122170448303	-22.1764
54.5278370380402	-23.06889
54.5434670448303	-23.79389
54.5590970516205	-24.15276
54.5747170448303	-23.90325
54.5903470516205	-22.82041
54.6059670448303	-20.80625
54.6215970516205	-17.9792
54.6372170448303	-14.54431
54.6528470516205	-10.76947
54.6684770584106	-6.86153
54.6840970516205	-2.907202
54.6997270584106	1.062284
54.7153470516205	4.980078
54.7309770584106	8.716473
54.7465970516205	12.07924
54.7622270584106	14.8295
54.7778568267822	16.82784
54.7934770584106	18.00164
54.8091068267822	18.37894
54.8247270584106	18.04427
54.8403568267822	17.09034
54.8559770584106	15.61139
54.8716068267822	13.73879
54.8872368335724	11.63564
54.9028568267822	9.466287
54.9184868335724	7.427607
54.9341068267822	5.645345
54.9497368335724	4.186474
54.9653568267822	3.08823
54.9809868335724	2.324799
54.9966168403625	1.847501
55.0122368335724	1.578339
55.0278668403625	1.370449
55.0434868335724	1.03963
55.0591168403625	0.4374571
55.0747368335724	-0.4737368
55.0903668403625	-1.610623
55.1059968471527	-2.736097
55.1216168403625	-3.602825
55.1372468471527	-4.057758
55.1528668403625	-4.107226
55.1684968471527	-3.913582
55.1841168403625	-3.748569
55.1997468471527	-3.87572
55.2153768539429	-4.462605
55.2309968471527	-5.552933
55.2466268539429	-7.072282
55.2622468471527	-8.867434
55.2778768539429	-10.73784
55.2934968471527	-12.49994
55.3091268539429	-13.98898
55.324756860733	-15.15588
55.3403768539429	-16.04464
55.356006860733	-16.83388
55.3716268539429	-17.77443
55.387256860733	-19.0696
55.4028768539429	-20.73403
55.418506860733	-22.53514
55.4341368675232	-23.98745
55.449756860733	-24.52929
55.4653868675232	-23.72764
55.481006860733	-21.44553
55.4966368675232	-17.91779
55.512256860733	-13.58899
55.5278868675232	-8.962992
55.5435168743134	-4.390949
55.5591368675232	-0.04504776
55.5747668743134	4.069542
55.5903868675232	7.990067
55.6060168743134	11.70555
55.6216368675232	15.15291
55.6372668743134	18.19885
55.6528968811035	20.6965
55.6685168743134	22.52159
55.6841468811035	23.6064
55.6997668743134	23.92567
55.7153968811035	23.52495
55.7310168743134	22.50464
55.7466468811035	20.9813
55.7622768878937	19.10051
55.7778968811035	17.00154
55.7935268878937	14.80983
55.8091468811035	12.67582
55.8247768878937	10.77406
55.8404068946838	9.229378
55.8560268878937	8.078815
55.8716568946838	7.243484
55.8872768878937	6.520267
55.9029068946838	5.69603
55.9185268878937	4.61731
55.9341568946838	3.274693
55.949786901474	1.786007
55.9654068946838	0.3340111
55.981036901474	-0.9076195
55.9966568946838	-1.887375
56.012286901474	-2.63369
56.0279068946838	-3.246857
56.043536901474	-3.810562
56.0591669082642	-4.379654
56.074786901474	-4.937241
56.0904169082642	-5.444962
56.106036901474	-5.852692
56.1216669082642	-6.133255
56.137286901474	-6.318893
56.1529169082642	-6.523766
56.1685469150543	-6.951859
56.1841669082642	-7.786652
56.1997969150543	-9.160927
56.2154169082642	-11.0329
56.2310469150543	-13.17234
56.2466669082642	-15.20587
56.2622969150543	-16.68112
56.2779269218445	-17.17978
56.2935469150543	-16.41874
56.3091769218445	-14.36194
56.3247969150543	-11.17513
56.3404269218445	-7.182091
56.3560469150543	-2.792137
56.3716769218445	1.6381
56.3873069286346	5.855118
56.4029269218445	9.754097
56.4185569286346	13.36325
56.4341769218445	16.7314
56.4498069286346	19.82775
56.4654269218445	22.52185
56.4810569286346	24.62923
56.4966869354248	25.95312
56.5123069286346	26.41985
56.5279369354248	26.07638
56.5435569286346	25.08962
56.5591869354248	23.70011
56.5748069286346	22.15649
56.5904369354248	20.67565
56.606066942215	19.40071
56.6216869354248	18.36045
56.637316942215	17.47304
56.6529369354248	16.61176
56.668566942215	15.63102
56.6841869354248	14.47556
56.699816942215	13.18668
56.7154469490051	11.85913
56.731066942215	10.59151
56.7466969490051	9.402084
56.762316942215	8.227325
56.7779469490051	6.948891
56.793566942215	5.544365
56.8091969490051	4.062477
56.8248269557953	2.641457
56.8404469490051	1.423859
56.8560769557953	0.3975067
56.8716969490051	-0.5616379
56.8873269557953	-1.668358
56.9029469490051	-3.082077
56.9185769557953	-4.81797
56.9342069625854	-6.721008
56.9498269557953	-8.596603
56.9654569625854	-10.29379
56.9810769557953	-11.80298
56.9967069625854	-13.26192
57.0123269557953	-14.88992
57.0279569625854	-16.90596
57.0435869693756	-19.40598
57.0592069625854	-22.28549
57.0748369693756	-25.2392
57.0904569625854	-27.77013
57.1060869693756	-29.34646
57.1217069625854	-29.49123
57.1373369693756	-27.98722
57.1529669761658	-24.91612
57.1685869693756	-20.69004
57.1842169761658	-15.85056
57.1998369693756	-10.86787
57.2154669761658	-6.02916
57.2310869693756	-1.407051
57.2467169761658	3.026024
57.2623469829559	7.304848
57.2779669761658	11.31063
57.2935969829559	14.8259
57.3092169761658	17.59834
57.3248469829559	19.45245
57.3404669761658	20.37847
57.3560969829559	20.52147
57.3717269897461	20.09379
57.3873469829559	19.31358
57.4029769897461	18.34512
57.4185969829559	17.26358
57.4342269897461	16.11739
57.4498469829559	14.95116
57.4654769897461	13.83908
57.4811069965363	12.84001
57.4967269897461	11.98806
57.5123569965363	11.24391
57.5279769897461	10.47508
57.5436069965363	9.504456
57.5592269897461	8.195442
57.5748569965363	6.512184
57.5904870033264	4.591911
57.6061069965363	2.65361
57.6217370033264	0.9166565
57.6373569965363	-0.4968872
57.6529870033264	-1.609268
57.6686069965363	-2.58577
57.6842370033264	-3.643051
57.6998670101166	-4.905449
57.7154870033264	-6.397362
57.7311170101166	-8.015495
57.7467370033264	-9.651604
57.7623670101166	-11.19538
57.7779870033264	-12.59774
57.7936170101166	-13.8654
57.8092470169067	-15.03648
57.8248670101166	-16.13985
57.8404970169067	-17.20084
57.8561170101166	-18.20341
57.8717470169067	-19.12453
57.8873670101166	-19.93008
57.9029970169067	-20.48885
57.9186270236969	-20.5802
57.9342470169067	-19.90063
57.9498770236969	-18.13252
57.9654970169067	-15.06207
57.9811270236969	-10.71104
57.9967470169067	-5.368568
58.0123770236969	0.4708099
58.0280070304871	6.215965
58.0436270236969	11.37399
58.0592570304871	15.66751
58.0748770236969	19.06046
58.0905070304871	21.71584
58.1061370372772	23.86272
58.1217570304871	25.6406
58.1373870372772	27.04176
58.1530070304871	27.95008
58.1686370372772	28.19608
58.1842570304871	27.64468
58.1998870372772	26.28212
58.2155170440674	24.20659
58.2311370372772	21.61691
58.2467670440674	18.76323
58.2623870372772	15.89346
58.2780170440674	13.20663
58.2936370372772	10.87495
58.3092670440674	8.997856
58.3248970508575	7.62645
58.3405170440674	6.716911
58.3561470508575	6.150551
58.3717670440674	5.771385
58.3873970508575	5.376129
58.4030170440674	4.787392
58.4186470508575	3.906174
58.4342770576477	2.741524
58.4498970508575	1.388565
58.4655270576477	0.02490234
58.4811470508575	-1.187164
58.4967770576477	-2.178162
58.5123970508575	-2.962944
58.5280270576477	-3.644356
58.5436568260193	-4.36451
58.5592770576477	-5.235718
58.5749068260193	-6.304237
58.5905270576477	-7.558083
58.6061568260193	-8.972672
58.6217770576477	-10.54047
58.6374068260193	-12.30073
58.6530368328094	-14.27845
58.6686568260193	-16.40148
58.6842868328094	-18.47119
58.6999068260193	-20.13587
58.7155368328094	-20.98486
58.7311568260193	-20.68702
58.7467868328094	-19.06657
58.7624168395996	-16.17558
58.7780368328094	-12.28413
58.7936668395996	-7.773987
58.8092868328094	-3.066521
58.8249168395996	1.487793
58.8405368328094	5.621849
58.8561668395996	9.202698
58.8717968463898	12.17233
58.8874168395996	14.60545
58.9030468463898	16.67053
58.9186668395996	18.49158
58.9342968463898	20.15807
58.9499168395996	21.58635
58.9655468463898	22.54819
58.9811768531799	22.77413
58.9967968463898	22.07992
59.0124268531799	20.47668
59.0280468463898	18.19077
59.0436768531799	15.59367
59.0592968463898	13.03448
59.0749268531799	10.77824
59.0905568599701	8.888161
59.1061768531799	7.28775
59.1218068599701	5.834137
59.1374268531799	4.390717
59.1530568599701	2.866631
59.1686768531799	1.22123
59.1843068599701	-0.5341034
59.1999368667603	-2.357765
59.2155568599701	-4.172188
59.2311868667603	-5.892525
59.2468068599701	-7.447586
59.2624368667603	-8.768913
59.2780568599701	-9.848755
59.2936868667603	-10.71595
59.3093168735504	-11.44942
59.3249368667603	-12.13442
59.3405668735504	-12.83454
59.3561868667603	-13.5451
59.3718168735504	-14.25726
59.3874368667603	-14.98573
59.4030668735504	-15.73752
59.4186968803406	-16.6101
59.4343168735504	-17.69292
59.4499468803406	-19.00359
59.4655668735504	-20.4464
59.4811968803406	-21.78853
59.4968168735504	-22.69633
59.5124468803406	-22.79834
59.5280768871307	-21.7895
59.5436968803406	-19.50189
59.5593268871307	-16.01529
59.5749468803406	-11.60301
59.5905768871307	-6.691296
59.6061968803406	-1.738098
59.6218268871307	2.874332
59.6374568939209	6.933441
59.6530768871307	10.42664
59.6687068939209	13.45861
59.6843268871307	16.12824
59.6999568939209	18.46478
59.7155768871307	20.37729
59.7312068939209	21.72408
59.7468369007111	22.35143
59.7624568939209	22.19253
59.7780869007111	21.26524
59.7937068939209	19.72284
59.8093369007111	17.77765
59.8249568939209	15.65862
59.8405869007111	13.58037
59.8562169075012	11.71433
59.8718369007111	10.15044
59.8874669075012	8.868206
59.9030869007111	7.801628
59.9187169075012	6.828506
59.9343369007111	5.809425
59.9499669075012	4.62262
59.9655969142914	3.197563
59.9812169075012	1.521828
59.9968469142914	-0.3402786
60.0124669075012	-2.267048
60.0280969142914	-4.159924
60.0437169075012	-5.938908
60.0593469142914	-7.609303
60.0749769210815	-9.198006
60.0905969142914	-10.74018
60.1062269210815	-12.23821
60.1218469142914	-13.66454
60.1374769210815	-14.97153
60.1530969142914	-16.10999
60.1687269210815	-17.02018
60.1843569278717	-17.64637
60.1999769210815	-17.98526
60.2156069278717	-18.09354
60.2312269210815	-18.12591
60.2468569278717	-18.30666
60.2624769210815	-18.81076
60.2781069278717	-19.68686
60.2937369346619	-20.75449
60.3093569278717	-21.57648
60.3249869346619	-21.64075
60.3406069278717	-20.51773
60.3562369346619	-18.0545
60.3718569278717	-14.44877
60.3874869346619	-10.14596
60.403116941452	-5.691624
60.4187369346619	-1.534481
60.434366941452	2.134201
60.4499869346619	5.351971
60.465616941452	8.298786
60.4812469482422	11.12495
60.496866941452	13.86614
60.5124969482422	16.41613
60.528116941452	18.55822
60.5437469482422	20.10582
60.559366941452	20.93624
60.5749969482422	21.06252
60.5906269550323	20.56721
60.6062469482422	19.57633
60.6218769550323	18.20893
60.6374969482422	16.6056
60.6531269550323	14.93591
60.6687469482422	13.38963
60.6843769550323	12.2062
60.7000069618225	11.49554
60.7156269550323	11.25827
60.7312569618225	11.30908
60.7468769550323	11.38236
60.7625069618225	11.21527
60.7781269550323	10.65541
60.7937569618225	9.682774
60.8093869686127	8.391283
60.8250069618225	6.957432
60.8406369686127	5.503653
60.8562569618225	4.146488
60.8718869686127	2.877651
60.8875069618225	1.679102
60.9031369686127	0.4858665
60.9187669754028	-0.7647038
60.9343869686127	-2.100857
60.9500169754028	-3.530457
60.9656369686127	-5.003401
60.9812669754028	-6.504784
60.9968869686127	-8.01222
61.0125169754028	-9.545345
61.028146982193	-11.13272
61.0437669754028	-12.80088
61.059396982193	-14.58485
61.0750169754028	-16.4616
61.090646982193	-18.3414
61.1062669754028	-19.99469
61.121896982193	-21.10746
61.1375269889832	-21.31976
61.153146982193	-20.37832
61.1687769889832	-18.21851
61.184396982193	-14.97276
61.2000269889832	-10.99572
61.215646982193	-6.713873
61.2312769889832	-2.575695
61.2469069957733	1.114758
61.2625269889832	4.17934
61.2781569957733	6.618027
61.2937769889832	8.537023
61.3094069957733	10.06883
61.3250269889832	11.34034
61.3406569957733	12.38237
61.3562870025635	13.17593
61.3719069957733	13.63203
61.3875370025635	13.7096
61.4031569957733	13.40336
61.4187870025635	12.75837
61.4344069957733	11.83679
61.4500370025635	10.66208
61.4656670093536	9.256468
61.4812870025635	7.666451
61.4969170093536	5.997026
61.5125370025635	4.390285
61.5281670093536	2.998715
61.5437870025635	1.903142
61.5594170093536	1.091735
61.5750470161438	0.4745307
61.5906670093536	-0.0883472
61.6062970161438	-0.6909688
61.6219170093536	-1.386676
61.6375470161438	-2.147117
61.6531670093536	-2.904458
61.6687970161438	-3.597958
61.684427022934	-4.182302
61.7000470161438	-4.677916
61.715677022934	-5.172905
61.7312970161438	-5.835331
61.746927022934	-6.787995
61.7625470161438	-8.071346
61.778177022934	-9.577924
61.7938070297241	-11.09616
61.809427022934	-12.38576
61.8250570297241	-13.28689
61.840677022934	-13.81635
61.8563070297241	-14.11467
61.871927022934	-14.38272
61.8875570297241	-14.80009
61.9031870365143	-15.4547
61.9188070297241	-16.35306
61.9344370365143	-17.41884
61.9500570297241	-18.47668
61.9656870365143	-19.22377
61.9813070297241	-19.2772
61.9969370365143	-18.24028
62.0125670433044	-15.86418
62.0281870365143	-12.21708
62.0438170433044	-7.675494
62.0594370365143	-2.81548
62.0750670433044	1.775747
62.0906870365143	5.728369
62.1063170433044	8.989861
62.1219470500946	11.7021
62.1375670433044	14.05405
62.1531970500946	16.17354
62.1688170433044	18.02127
62.1844470500946	19.4605
62.2000670433044	20.35424
62.2156970500946	20.59361
62.2313270568848	20.16249
62.2469470500946	19.12449
62.2625770568848	17.61332
62.2781970500946	15.78488
62.2938270568848	13.85653
62.3094470500946	12.03325
62.3250770568848	10.51826
62.3407068252563	9.458641
62.3563270568848	8.869514
62.3719568252563	8.644773
62.3875770568848	8.566152
62.4032068252563	8.387112
62.4188270568848	7.902068
62.4344568252563	7.038765
62.4500868320465	5.836688
62.4657068252563	4.475201
62.4813368320465	3.176982
62.4969568252563	2.103441
62.5125868320465	1.343775
62.5282068252563	0.8504744
62.5438368320465	0.4981241
62.5594668388367	0.1403828
62.5750868320465	-0.3313084
62.5907168388367	-0.9898224
62.6063368320465	-1.802986
62.6219668388367	-2.670077
62.6375868320465	-3.513955
62.6532168388367	-4.28977
62.6688468456268	-5.037909
62.6844668388367	-5.900315
62.7000968456268	-7.059562
62.7157168388367	-8.689913
62.7313468456268	-10.90052
62.7469668388367	-13.65579
62.7625968456268	-16.73727
62.778226852417	-19.79213
62.7938468456268	-22.33345
62.809476852417	-23.89044
62.8250968456268	-24.14596
62.840726852417	-23.02002
62.8563468456268	-20.71497
62.871976852417	-17.62956
62.8876068592072	-14.25321
62.903226852417	-10.97495
62.9188568592072	-7.98123
62.934476852417	-5.238262
62.9501068592072	-2.556313
62.9657368659973	0.2319813
62.9813568592072	3.172367
62.9969868659973	6.130169
63.0126068592072	8.813072
63.0282368659973	10.89386
63.0438568592072	12.13089
63.0594868659973	12.48806
63.0751168727875	12.12605
63.0907368659973	11.30788
63.1063668727875	10.32903
63.1219868659973	9.406586
63.1376168727875	8.664011
63.1532368659973	8.139084
63.1688668727875	7.794811
63.1844968795776	7.566029
63.2001168727875	7.364735
63.2157468795776	7.114752
63.2313668727875	6.721338
63.2469968795776	6.140507
63.2626168727875	5.363846
63.2782468795776	4.376322
63.2938768863678	3.197292
63.3094968795776	1.868763
63.3251268863678	0.457262
63.3407468795776	-0.9235744
63.3563768863678	-2.150507
63.3719968795776	-3.19475
63.3876268863678	-4.133142
63.403256893158	-5.152115
63.4188768863678	-6.442659
63.434506893158	-8.091331
63.4501268863678	-9.973934
63.465756893158	-11.80844
63.4813768863678	-13.26237
63.497006893158	-14.16037
63.5126368999481	-14.54704
63.528256893158	-14.68978
63.5438868999481	-14.95729
63.559506893158	-15.65459
63.5751368999481	-16.87534
63.590756893158	-18.487
63.6063868999481	-20.15081
63.6220169067383	-21.44717
63.6376368999481	-21.97369
63.6532669067383	-21.41538
63.6688868999481	-19.59328
63.6845169067383	-16.49872
63.7001368999481	-12.32961
63.7157669067383	-7.44055
63.7313969135284	-2.306601
63.7470169067383	2.594442
63.7626469135284	6.926039
63.7782669067383	10.55196
63.7938969135284	13.56838
63.8095169067383	16.24275
63.8251469135284	18.80685
63.8407769203186	21.33676
63.8563969135284	23.7128
63.8720269203186	25.63047
63.8876469135284	26.78235
63.9032769203186	27.02076
63.9188969135284	26.41153
63.9345269203186	25.17396
63.9501569271088	23.612
63.9657769203186	21.96089
63.9814069271088	20.33518
63.9970269203186	18.79716
64.0126569271088	17.35289
64.0282769203186	16.02296
64.0439069271088	14.82979
64.0595369338989	13.74902
64.0751569271088	12.65358
64.0907869338989	11.37229
64.1064069271088	9.754763
64.1220369338989	7.734211
64.1376569271088	5.376652
64.1532869338989	2.849846
64.1689169406891	0.3869743
64.1845369338989	-1.821039
64.2001669406891	-3.681702
64.2157869338989	-5.201899
64.2314169406891	-6.498014
64.2470369338989	-7.733892
64.2626669406891	-9.089861
64.2782969474792	-10.65263
64.2939169406891	-12.42209
64.3095469474792	-14.26715
64.3251669406891	-16.00096
64.3407969474792	-17.46128
64.3564169406891	-18.54955
64.3720469474792	-19.32368
64.3876769542694	-19.96105
64.4032969474792	-20.70898
64.4189269542694	-21.76666
64.4345469474792	-23.24997
64.4501769542694	-25.13778
64.4657969474792	-27.22391
64.4814269542694	-29.18854
64.4970569610596	-30.59056
64.5126769542694	-30.96408
64.5283069610596	-29.94108
64.5439269542694	-27.389
64.5595569610596	-23.43323
64.5751769542694	-18.49416
64.5908069610596	-13.16125
64.6064369678497	-7.963914
64.6220569610596	-3.262315
64.6376869678497	0.8399734
64.6533069610596	4.426709
64.6689369678497	7.705362
64.6845569610596	10.82948
64.7001869678497	13.83967
64.7158169746399	16.63529
64.7314369678497	19.00388
64.7470669746399	20.72258
64.7626869678497	21.63255
64.7783169746399	21.6984
64.7939369678497	21.0374
64.8095669746399	19.88359
64.8251969814301	18.49585
64.8408169746399	17.11356
64.8564469814301	15.87273
64.8720669746399	14.8116
64.8876969814301	13.93848
64.9033169746399	13.22621
64.9189469814301	12.66742
64.9345769882202	12.2463
64.9501969814301	11.87775
64.9658269882202	11.40679
64.9814469814301	10.63999
64.9970769882202	9.43906
65.0126969814301	7.818919
65.0283269882202	5.965137
65.0439569950104	4.146838
65.0595769882202	2.622355
65.0752069950104	1.485116
65.0908269882202	0.6245494
65.1064569950104	-0.2142735
65.1220769882202	-1.291666
65.1377069950104	-2.745481
65.1533370018005	-4.547639
65.1689569950104	-6.473683
65.1845870018005	-8.275938
65.2002069950104	-9.773256
65.2158370018005	-10.95536
65.2314670085907	-11.92723
65.2470870018005	-12.93075
65.2627170085907	-14.17872
65.2783370018005	-15.81929
65.2939670085907	-17.8856
65.3095870018005	-20.22964
65.3252170085907	-22.56997
65.3408470153809	-24.50331
65.3564670085907	-25.60872
65.3720970153809	-25.52427
65.3877170085907	-24.07009
65.4033470153809	-21.27866
65.4189670085907	-17.41745
65.4345970153809	-12.87009
65.450227022171	-8.040318
65.4658470153809	-3.240147
65.481477022171	1.329702
65.4970970153809	5.55094
65.512727022171	9.360153
65.5283470153809	12.73063
65.543977022171	15.67789
65.5596070289612	18.22326
65.575227022171	20.37246
65.5908570289612	22.06643
65.606477022171	23.1972
65.6221070289612	23.6483
65.637727022171	23.39398
65.6533570289612	22.51701
65.6689870357513	21.22606
65.6846070289612	19.76918
65.7002370357513	18.35257
65.7158570289612	17.0599
65.7314870357513	15.91392
65.7471070289612	14.90402
65.7627370357513	14.04096
65.7783670425415	13.3762
65.7939870357513	12.90539
65.8096170425415	12.54723
65.8252370357513	12.13109
65.8408670425415	11.46407
65.8564870357513	10.40133
65.8721170425415	8.949572
65.8877470493317	7.241681
65.9033670425415	5.516912
65.9189970493317	4.002597
65.9346170425415	2.871409
65.9502470493317	2.121817
65.9658670425415	1.641205
65.9814970493317	1.233987
65.9971270561218	0.6723108
66.0127470493317	-0.2206826
66.0283770561218	-1.524794
66.0439970493317	-3.188945
66.0596270561218	-5.064311
66.0752470493317	-6.932928
66.0908770561218	-8.627363
66.1065068244934	-10.05718
66.1221270561218	-11.22675
66.1377568244934	-12.23374
66.1533770561218	-13.22609
66.1690068244934	-14.37552
66.1846270561218	-15.80019
66.2002568244934	-17.5134
66.2158868312836	-19.34619
66.2315068244934	-20.96051
66.2471368312836	-21.89511
66.2627568244934	-21.73224
66.2783868312836	-20.23979
66.2940068244934	-17.45707
66.3096368312836	-13.71667
66.3252668380737	-9.512308
66.3408868312836	-5.345894
66.3565168380737	-1.561601
66.3721368312836	1.684522
66.3877668380737	4.427393
66.4033868312836	6.794878
66.4190168380737	8.913985
66.4346468448639	10.87264
66.4502668380737	12.65672
66.4658968448639	14.17672
66.4815168380737	15.28222
66.4971468448639	15.8568
66.5127668380737	15.81634
66.5283968448639	15.20084
66.5440268516541	14.14502
66.5596468448639	12.8133
66.5752768516541	11.4159
66.5908968448639	10.10288
66.6065268516541	8.925138
66.6221468448639	7.879405
66.6377768516541	6.897192
66.6534068584442	5.941218
66.6690268516541	5.012174
66.6846568584442	4.211187
66.7002768516541	3.629653
66.7159068584442	3.346637
66.7315268516541	3.305421
66.7471568584442	3.318634
66.7627868652344	3.182989
66.7784068584442	2.738056
66.7940368652344	1.982199
66.8096568584442	1.084595
66.8252868652344	0.2769036
66.8409068584442	-0.2901134
66.8565368652344	-0.6161871
66.8721668720245	-0.8486309
66.8877868652344	-1.200398
66.9034168720245	-1.841217
66.9190368652344	-2.795163
66.9346668720245	-3.979817
66.9502868652344	-5.215569
66.9659168720245	-6.323269
66.9815468788147	-7.200329
66.9971668720245	-7.788367
67.0127968788147	-8.091043
67.0284168720245	-8.168479
67.0440468788147	-8.088852
67.0596668720245	-7.980939
67.0752968788147	-7.997741
67.0909268856049	-8.258053
67.1065468788147	-8.824911
67.1221768856049	-9.662174
67.1377968788147	-10.59799
67.1534268856049	-11.3617
67.1690468788147	-11.68966
67.1846768856049	-11.36699
67.200306892395	-10.37541
67.2159268856049	-8.833509
67.231556892395	-6.949185
67.2471768856049	-4.974583
67.262806892395	-3.043054
67.2784268856049	-1.146129
67.294056892395	0.8208981
67.3096868991852	2.936369
67.325306892395	5.2104
67.3409368991852	7.483576
67.356556892395	9.489857
67.3721868991852	10.97056
67.387806892395	11.74972
67.4034368991852	11.81231
67.4190669059753	11.29438
67.4346868991852	10.4124
67.4503169059753	9.357519
67.4659368991852	8.296423
67.4815669059753	7.323462
67.4971868991852	6.50386
67.5128169059753	5.900225
67.5284469127655	5.530205
67.5440669059753	5.395382
67.5596969127655	5.455475
67.5753169059753	5.671833
67.5909469127655	5.965172
67.6065669059753	6.283484
67.6221969127655	6.565615
67.6378269195557	6.764601
67.6534469127655	6.891645
67.6690769195557	6.971533
67.6846969127655	7.089745
67.7003269195557	7.334146
67.7159469127655	7.75017
67.7315769195557	8.285957
67.7472069263458	8.820641
67.7628269195557	9.171707
67.7784569263458	9.18375
67.7940769195557	8.796223
67.8097069263458	8.028332
67.825336933136	6.968349
67.8409569263458	5.678373
67.856586933136	4.125128
67.8722069263458	2.144711
67.887836933136	-0.4525871
67.9034569263458	-3.818754
67.919086933136	-7.944969
67.9347169399261	-12.59613
67.950336933136	-17.37319
67.9659669399261	-21.74935
67.981586933136	-25.22158
67.9972169399261	-27.39841
68.012836933136	-28.06214
68.0284669399261	-27.18066
68.0440969467163	-24.88743
68.0597169399261	-21.50069
68.0753469467163	-17.43076
68.0909669399261	-13.16963
68.1065969467163	-9.139236
68.1222169399261	-5.612667
68.1378469467163	-2.644066
68.1534769535065	-0.0893631
68.1690969467163	2.256611
68.1847269535065	4.532967
68.2003469467163	6.72047
68.2159769535065	8.677593
68.2315969467163	10.19631
68.2472269535065	11.1621
68.2628569602966	11.58743
68.2784769535065	11.63732
68.2941069602966	11.52176
68.3097269535065	11.39481
68.3253569602966	11.24998
68.3409769535065	10.98296
68.3566069602966	10.44571
68.3722369670868	9.514118
68.3878569602966	8.178417
68.4034869670868	6.516491
68.4191069602966	4.679508
68.4347369670868	2.837624
68.4503569602966	1.103954
68.4659869670868	-0.4774895
68.481616973877	-1.915279
68.4972369670868	-3.232372
68.512866973877	-4.453449
68.5284869670868	-5.562054
68.544116973877	-6.512802
68.5597369670868	-7.268009
68.575366973877	-7.82888
68.5909969806671	-8.275837
68.606616973877	-8.716133
68.6222469806671	-9.26754
68.637866973877	-9.97715
68.6534969806671	-10.79698
68.669116973877	-11.64981
68.6847469806671	-12.45569
68.7003769874573	-13.20301
68.7159969806671	-13.9375
68.7316269874573	-14.76709
68.7472469806671	-15.79375
68.7628769874573	-17.06406
68.7784969806671	-18.52876
68.7941269874573	-19.98764
68.8097569942474	-21.13877
68.8253769874573	-21.63114
68.8410069942474	-21.14115
68.8566269874573	-19.50407
68.8722569942474	-16.78056
68.8878769874573	-13.27868
68.9035069942474	-9.431599
68.9191370010376	-5.654404
68.9347569942474	-2.164444
68.9503870010376	1.052761
68.9660069942474	4.18819
68.9816370010376	7.470715
68.9972569942474	10.99916
69.0128870010376	14.68234
69.0285170078278	18.22924
69.0441370010376	21.30058
69.0597670078278	23.59989
69.0753870010376	25.01797
69.0910170078278	25.62221
69.1066370010376	25.61657
69.1222670078278	25.26175
69.1378970146179	24.7422
69.1535170078278	24.1414
69.1691470146179	23.41737
69.1847670078278	22.5214
69.2003970146179	21.422
69.2160170078278	20.20334
69.2316470146179	19.01581
69.2472770214081	17.98723
69.2628970146179	17.16579
69.2785270214081	16.45791
69.2941470146179	15.66179
69.3097770214081	14.6034
69.3253970146179	13.19815
69.3410270214081	11.51649
69.3566570281982	9.736988
69.3722770214081	8.051903
69.3879070281982	6.566856
69.4035270214081	5.278843
69.4191570281982	4.067394
69.4347770214081	2.751968
69.4504070281982	1.182365
69.4660370349884	-0.7400589
69.4816570281982	-3.063255
69.4972870349884	-5.778923
69.5129070281982	-8.858143
69.5285370349884	-12.26366
69.5441570281982	-15.91596
69.5597870349884	-19.74289
69.5754170417786	-23.67414
69.5910370349884	-27.64434
69.6066670417786	-31.60461
69.6222870349884	-35.49604
69.6379170417786	-39.1685
69.6535370349884	-42.36839
69.6691670417786	-44.75587
69.6847970485687	-45.95787
69.7004170417786	-45.68114
69.7160470485687	-43.81277
69.7316670417786	-40.46516
69.7472970485687	-35.99382
69.7629170417786	-30.95174
69.7785470485687	-25.91433
69.7941770553589	-21.38255
69.8097970485687	-17.6287
69.8254270553589	-14.65841
69.8410470485687	-12.26963
69.8566770553589	-10.19311
69.8722970485687	-8.238773
69.8879270553589	-6.371872
69.9035568237305	-4.70393
69.9191770553589	-3.350056
69.9348068237305	-2.358223
69.9504270553589	-1.656342
69.9660568237305	-1.09898
69.9816770553589	-0.5718689
69.9973068237305	-0.03581238
70.0129368305206	0.50704
70.0285568237305	1.080923
70.0441868305206	1.786753
70.0598068237305	2.792385
70.0754368305206	4.213671
70.0910668373108	6.044594
70.1066868305206	8.147966
70.1223168373108	10.23314
70.1379368305206	12.01076
70.1535668373108	13.24528
70.1691868305206	13.82972
70.1848168373108	13.79054
70.200446844101	13.28488
70.2160668373108	12.50502
70.231696844101	11.63599
70.2473168373108	10.79443
70.262946844101	9.958439
70.2785668373108	9.004493
70.294196844101	7.779949
70.3098268508911	6.188788
70.325446844101	4.243474
70.3410768508911	2.102941
70.356696844101	-0.03249931
70.3723268508911	-2.013291
70.387946844101	-3.803306
70.4035768508911	-5.46672
70.4192068576813	-7.134617
70.4348268508911	-8.931976
70.4504568576813	-10.92292
70.4660768508911	-13.12096
70.4817068576813	-15.40292
70.4973268508911	-17.546
70.5129568576813	-19.21621
70.5285868644714	-20.04687
70.5442068576813	-19.70723
70.5598368644714	-18.03253
70.5754568576813	-15.09913
70.5910868644714	-11.20237
70.6067068576813	-6.789757
70.6223368644714	-2.285812
70.6379668712616	1.982433
70.6535868644714	5.890694
70.6692168712616	9.454308
70.6848368644714	12.75309
70.7004668712616	15.84855
70.7160868644714	18.6981
70.7317168712616	21.18257
70.7473468780518	23.13227
70.7629668712616	24.42647
70.7785968780518	24.96353
70.7942168712616	24.7718
70.8098468780518	23.96587
70.8254668712616	22.72869
70.8410968780518	21.29332
70.8567268848419	19.87261
70.8723468780518	18.64918
70.8879768848419	17.6886
70.9035968780518	16.97112
70.9192268848419	16.41098
70.9348468780518	15.89854
70.9504768848419	15.32273
70.9661068916321	14.55751
70.9817268848419	13.48849
70.9973568916321	12.03068
71.0129768848419	10.18032
71.0286068916321	8.040794
71.0442268848419	5.850197
71.0598568916321	3.857697
71.0754868984222	2.226723
71.0911068916321	0.954422
71.1067368984222	-0.1621094
71.1223568916321	-1.402481
71.1379868984222	-3.011856
71.1536068916321	-5.035248
71.1692368984222	-7.322105
71.1848669052124	-9.570786
71.2004868984222	-11.4742
71.2161169052124	-12.83531
71.2317368984222	-13.70718
71.2473669052124	-14.31811
71.2629868984222	-14.99928
71.2786169052124	-16.08463
71.2942469120026	-17.76972
71.3098669052124	-20.04043
71.3254969120026	-22.63147
71.3411169052124	-25.07644
71.3567469120026	-26.79176
71.3723669052124	-27.24621
71.3879969120026	-26.05022
71.4036269187927	-23.14001
71.4192469120026	-18.7716
71.4348769187927	-13.47314
71.4504969120026	-7.878151
71.4661269187927	-2.529129
71.4817469120026	2.256477
71.4973769187927	6.4506
71.5130069255829	10.18618
71.5286269187927	13.6578
71.5442569255829	16.92675
71.5598769187927	19.92289
71.5755069255829	22.44982
71.5911269187927	24.32054
71.6067569255829	25.42374
71.622386932373	25.77296
71.6380069255829	25.4672
71.653636932373	24.65907
71.6692569255829	23.54045
71.684886932373	22.26106
71.7005069255829	20.95753
71.716136932373	19.71332
71.7317669391632	18.53275
71.747386932373	17.35171
71.7630169391632	16.14171
71.778636932373	14.91305
71.7942669391632	13.7333
71.809886932373	12.68535
71.8255169391632	11.76777
71.8411469459534	10.88203
71.8567669391632	9.861038
71.8723969459534	8.55056
71.8880169391632	6.919693
71.9036469459534	5.111176
71.9192669391632	3.365837
71.9348969459534	1.895103
71.9505269527435	0.7791443
71.9661469459534	-0.1077881
71.9817769527435	-0.9834213
71.9973969459534	-2.055992
72.0130269527435	-3.441444
72.0286469459534	-5.120804
72.0442769527435	-6.988777
72.0599069595337	-8.899246
72.0755269527435	-10.72076
72.0911569595337	-12.34893
72.1067769527435	-13.78268
72.1224069595337	-15.07373
72.1380269527435	-16.35792
72.1536569595337	-17.85168
72.1692869663239	-19.701
72.1849069595337	-21.92227
72.2005369663239	-24.25761
72.2161569595337	-26.25076
72.2317869663239	-27.30186
72.247416973114	-26.95055
72.2630369663239	-24.9873
72.278666973114	-21.52982
72.2942869663239	-16.97885
72.309916973114	-11.83199
72.3255369663239	-6.54911
72.341166973114	-1.448761
72.3567969799042	3.284027
72.372416973114	7.601418
72.3880469799042	11.50037
72.403666973114	15.01488
72.4192969799042	18.16766
72.434916973114	20.95482
72.4505469799042	23.30668
72.4661769866943	25.06637
72.4817969799042	26.06884
72.4974269866943	26.20225
72.5130469799042	25.53905
72.5286769866943	24.29637
72.5442969799042	22.80669
72.5599269866943	21.34628
72.5755569934845	20.0554
72.5911769866943	18.93744
72.6068069934845	17.90262
72.6224269866943	16.90034
72.6380569934845	15.94795
72.6536769866943	15.12378
72.6693069934845	14.4418
72.6849370002747	13.82673
72.7005569934845	13.08637
72.7161870002747	12.00658
72.7318069934845	10.49826
72.7474370002747	8.621803
72.7630569934845	6.597588
72.7786870002747	4.652496
72.7943170070648	2.963341
72.8099370002747	1.530357
72.8255670070648	0.2792892
72.8411870002747	-0.9311218
72.8568170070648	-2.224815
72.8724370002747	-3.658386
72.8880670070648	-5.260757
72.903697013855	-7.005554
72.9193170070648	-8.839874
72.934947013855	-10.66891
72.9505670070648	-12.38682
72.966197013855	-13.91114
72.9818170070648	-15.18156
72.997447013855	-16.26786
73.0130770206451	-17.32318
73.028697013855	-18.59164
73.0443270206451	-20.26814
73.059947013855	-22.40673
73.0755770206451	-24.81255
73.091197013855	-27.07527
73.1068270206451	-28.6465
73.1224570274353	-28.96059
73.1380770206451	-27.69158
