onset	BVP
1.53940892219543	3.955399
1.55502891540527	10.64001
1.57065892219543	14.81175
1.58627891540527	16.56343
1.60190892219543	16.56687
1.6175389289856	15.57272
1.63315892219543	14.19257
1.6487889289856	12.77345
1.66440892219543	11.48332
1.6800389289856	10.40545
1.69565892219543	9.63813
1.7112889289856	9.263733
1.72691893577576	9.240608
1.7425389289856	9.502625
1.75816893577576	9.903198
1.7737889289856	10.3166
1.78941893577576	10.77315
1.8050389289856	11.3495
1.82066893577576	12.18241
1.83629894256592	13.38658
1.85191893577576	14.89094
1.86754894256592	16.43057
1.88316893577576	17.60828
1.89879894256592	17.97843
1.91441893577576	17.17667
1.93004894256592	15.09406
1.94567894935608	11.9099
1.96129894256592	8.063164
1.97692894935608	4.122826
1.99254894256592	0.5382996
2.00817894935608	-2.439224
2.02379894256592	-4.867668
2.03942894935608	-7.101952
2.05505895614624	-9.685387
2.07067894935608	-13.1657
2.08630895614624	-17.97598
2.10192894935608	-24.19675
2.11755895614624	-31.37482
2.13317894935608	-38.5573
2.14880895614624	-44.37724
2.1644389629364	-47.39709
2.18005895614624	-46.58108
2.1956889629364	-41.68504
2.21130895614624	-33.34299
2.2269389629364	-22.96561
2.24255895614624	-12.24697
2.2581889629364	-2.604019
2.27381896972656	5.152931
2.2894389629364	10.87918
2.30506896972656	14.93605
2.3206889629364	17.78304
2.33631896972656	19.80618
2.3519389629364	21.14176
2.36756896972656	21.81914
2.38319897651672	21.86061
2.39881896972656	21.4743
2.41444897651672	20.97806
2.43006896972656	20.74302
2.44569897651672	21.03288
2.46131896972656	21.8701
2.47694897651672	23.05264
2.49257898330688	24.2073
2.50819897651672	24.92519
2.52382898330688	24.89568
2.53944897651672	24.04431
2.55507898330688	22.46139
2.57069897651672	20.42267
2.58632898330688	18.17316
2.60195899009705	15.78214
2.61757898330688	13.01682
2.63320899009705	9.448547
2.64882898330688	4.573174
2.66445899009705	-1.898804
2.68007898330688	-9.833504
2.69570899009705	-18.67837
2.71133899688721	-27.56913
2.72695899009705	-35.6425
2.74258899688721	-42.37621
2.75820899009705	-47.71982
2.77383899688721	-52.068
2.78945899009705	-56.04749
2.80508899688721	-60.21951
2.82071876525879	-64.91084
2.83633899688721	-70.04298
2.85196876525879	-75.1003
2.86758899688721	-79.16723
2.88321876525879	-81.11351
2.89883899688721	-79.86885
2.91446876525879	-74.75143
2.93009877204895	-65.73528
2.94571876525879	-53.57917
2.96134877204895	-39.57923
2.97696876525879	-25.34007
2.99259877204895	-12.2569
3.00821876525879	-1.259735
3.02384877204895	7.250977
3.03947877883911	13.37644
3.05509877204895	17.5158
3.07072877883911	20.22543
3.08634877204895	21.99606
3.10197877883911	23.24522
3.11759877204895	24.16687
3.13322877883911	24.83121
3.14885878562927	25.17387
3.16447877883911	25.17423
3.18010878562927	24.89089
3.19572877883911	24.52512
3.21135878562927	24.29452
3.22697877883911	24.31486
3.24260878562927	24.51313
3.25823879241943	24.64558
3.27385878562927	24.48706
3.28948879241943	23.86502
3.30510878562927	22.79255
3.32073879241943	21.32673
3.33635878562927	19.4847
3.35198879241943	17.13884
3.36761879920959	14.02838
3.38323879241943	9.885143
3.39886879920959	4.623589
3.41448879241943	-1.547607
3.43011879920959	-8.170996
3.44573879241943	-14.64831
3.46136879920959	-20.481
3.47699880599976	-25.44738
3.49261879920959	-29.64246
3.50824880599976	-33.36594
3.52386879920959	-37.06561
3.53949880599976	-41.19968
3.55512881278992	-46.17281
3.57074880599976	-52.19735
3.58637881278992	-59.10273
3.60199880599976	-66.14914
3.61762881278992	-72.02808
3.63324880599976	-75.11785
3.64887881278992	-73.98688
3.66450881958008	-67.94882
3.68012881278992	-57.51216
3.69575881958008	-44.21999
3.71137881278992	-30.17295
3.72700881958008	-17.26327
3.74262881278992	-6.635075
3.75825881958008	1.51038
3.77388882637024	7.639675
3.80513882637024	16.64227
3.82075881958008	20.39521
3.83638882637024	23.81271
3.85200881958008	26.97282
3.86763882637024	30.11826
3.8832688331604	33.6358
3.89888882637024	37.9114
3.9145188331604	43.14758
3.93013882637024	49.13965
3.9457688331604	55.33848
3.96138882637024	60.9384
3.9770188331604	65.1311
3.99264883995056	67.3317
4.0082688331604	67.39744
4.02389883995056	65.54751
4.0395188331604	62.26911
4.05514883995056	58.07385
4.0707688331604	53.33865
4.08639883995056	48.32105
4.10202884674072	43.22765
4.11764883995056	38.36762
4.13327884674072	34.188
4.14889883995056	31.20361
4.16452884674072	29.84956
4.18014883995056	30.27853
4.19577884674072	32.25969
4.21140885353088	35.24298
4.22702884674072	38.48485
4.24265885353088	41.18114
4.25827884674072	42.71986
4.27390885353088	42.69551
4.28952884674072	40.94911
4.30515885353088	37.53831
4.32078886032104	32.71355
4.33640885353088	26.88699
4.35203886032104	20.61136
4.36765885353088	14.57306
4.38328886032104	9.439026
4.39890885353088	5.794907
4.41453886032104	3.930511
4.43016886711121	3.762405
4.44578886032104	4.846313
4.46141886711121	6.543167
4.47703886032104	8.210617
4.49266886711121	9.429123
4.50828886032104	10.11275
4.52391886711121	10.46736
4.53954887390137	10.84274
4.55516886711121	11.55637
4.57079887390137	12.66568
4.58641886711121	13.97659
4.60204887390137	15.12582
4.61766886711121	15.7517
4.63329887390137	15.7263
4.64892888069153	15.22442
4.66454887390137	14.67003
4.68017888069153	14.56451
4.69579887390137	15.19383
4.71142888069153	16.49746
4.72704887390137	18.08598
4.74267888069153	19.38083
4.75830888748169	19.90376
4.77392888069153	19.44839
4.78955888748169	18.10667
4.80517888069153	16.20744
4.82080888748169	14.08221
4.83642888069153	11.93436
4.85205888748169	9.795692
4.86768889427185	7.631798
4.88330888748169	5.373695
4.89893889427185	3.11441
4.91455888748169	1.01841
4.93018889427185	-0.7600098
4.94580888748169	-2.176666
4.96143889427185	-3.35743
4.97706890106201	-4.616623
4.99268889427185	-6.349556
5.00831890106201	-8.943356
5.02393889427185	-12.71021
5.03956890106201	-17.8396
5.05518889427185	-24.37355
5.07081890106201	-32.15017
5.08644890785217	-40.71995
5.10206890106201	-49.16691
5.11769890785217	-56.23513
5.13331890106201	-60.45305
5.14894890785217	-60.59238
5.16456890106201	-56.12735
5.18019890785217	-47.52863
5.19582891464233	-36.24747
5.21144890785217	-24.3275
5.22707891464233	-13.74232
5.24269890785217	-5.852219
5.25832891464233	-1.116329
5.27394890785217	0.9001427
5.28957891464233	1.061001
5.3052089214325	0.2890568
5.32082891464233	-0.7333107
5.3364589214325	-1.691557
5.35207891464233	-2.479578
5.3677089214325	-3.02062
5.38332891464233	-3.194693
5.3989589214325	-2.772476
5.41458892822266	-1.526308
5.4302089214325	0.6312084
5.44583892822266	3.531023
5.4614589214325	6.777987
5.47708892822266	9.818272
5.4927089214325	12.1891
5.50833892822266	13.66499
5.52396893501282	14.29064
5.53958892822266	14.29152
5.55521893501282	13.94993
5.57083892822266	13.44567
5.58646893501282	12.76273
5.60208892822266	11.80046
5.61771893501282	10.39856
5.63334894180298	8.485056
5.64896893501282	6.060648
5.66459894180298	3.187451
5.68021893501282	-0.07712936
5.69584894180298	-3.690627
5.71147894859314	-7.633836
5.72709894180298	-11.86086
5.74272894859314	-16.25624
5.75834894180298	-20.72818
5.77397894859314	-25.19925
5.78959894180298	-29.63593
5.80522894859314	-34.19407
5.8208589553833	-39.07483
5.83647894859314	-44.38793
5.8521089553833	-49.91543
5.86772894859314	-54.9147
5.8833589553833	-58.14964
5.89897894859314	-58.1586
5.9146089553833	-53.82498
5.93023896217346	-44.81917
5.9458589553833	-31.89212
5.96148896217346	-16.63473
5.9771089553833	-1.040892
5.99273896217346	13.13245
6.0083589553833	24.82801
6.02398896217346	33.75483
6.03961896896362	40.24599
6.05523896217346	44.86867
6.07086896896362	48.14902
6.08648896217346	50.41546
6.10211896896362	51.88426
6.11773896217346	52.70884
6.13336896896362	53.10637
6.14899897575378	53.37411
6.16461896896362	53.81958
6.18024897575378	54.69483
6.19586896896362	56.08519
6.21149897575378	57.87773
6.22711896896362	59.78816
6.24274897575378	61.44261
6.25837898254395	62.46273
6.27399897575378	62.53432
6.28962898254395	61.49096
6.30524897575378	59.25835
6.32087898254395	55.84764
6.33649897575378	51.29065
6.35212898254395	45.65343
6.36775898933411	39.04412
6.38337898254395	31.64103
6.39900898933411	23.73748
6.41462898254395	15.7707
6.43025898933411	8.178364
6.44587898254395	1.313107
6.46150898933411	-4.626167
6.47713899612427	-9.730438
6.49275898933411	-14.28084
6.50838899612427	-18.67443
6.52400898933411	-23.37884
6.53963899612427	-28.83321
6.55525898933411	-35.41748
6.57088899612427	-43.37289
6.58651900291443	-52.5969
6.60213899612427	-62.45049
6.61776900291443	-71.72687
6.63338899612427	-78.76416
6.64901900291443	-81.90039
6.66463899612427	-80.06122
6.68026900291443	-73.18389
6.69589877128601	-62.37283
6.71151900291443	-49.52587
6.72714877128601	-36.67422
6.74276900291443	-25.3857
6.75839877128601	-16.43917
6.77401900291443	-9.832581
6.78964877128601	-5.100883
6.80527877807617	-1.768692
6.82089877128601	0.4690933
6.83652877807617	1.723618
6.85214877128601	2.11573
6.86777877807617	1.96627
6.88339877128601	1.851952
6.89902877807617	2.380737
6.91465878486633	4.011505
6.93027877807617	6.78302
6.94590878486633	10.28503
6.96152877807617	13.85258
6.97715878486633	16.84032
6.99277877807617	18.88393
7.00840878486633	20.01628
7.02403879165649	20.61166
7.03965878486633	21.1524
7.05528879165649	22.02162
7.07090878486633	23.28735
7.08653879165649	24.65233
7.10215878486633	25.5731
7.11778879165649	25.42516
7.13341879844666	23.7056
7.14903879165649	20.28947
7.16466879844666	15.46544
7.18028879165649	9.916367
7.19591879844666	4.419373
7.21153879165649	-0.4086151
7.22716879844666	-4.354233
7.24279880523682	-7.605515
7.25841879844666	-10.65358
7.27404880523682	-14.14159
7.28966879844666	-18.62253
7.30529880523682	-24.51019
7.32091879844666	-31.8976
7.33654880523682	-40.43011
7.35217881202698	-49.14568
7.36779880523682	-56.49231
7.38342881202698	-60.70332
7.39904880523682	-60.33138
7.41467881202698	-54.90987
7.43029880523682	-45.19513
7.44592881202698	-32.9977
7.46155881881714	-20.51122
7.47717881202698	-9.538559
7.49280881881714	-0.9767609
7.50842881202698	5.29245
7.52405881881714	10.02608
7.53967881202698	14.09239
7.55530881881714	17.9818
7.5709388256073	21.75735
7.58655881881714	25.10323
7.6021888256073	27.67876
7.61780881881714	29.37657
7.6334388256073	30.38181
7.64905881881714	31.13446
7.6646888256073	32.0954
7.68031883239746	33.54921
7.6959388256073	35.46266
7.71156883239746	37.60066
7.7271888256073	39.58505
7.74281883239746	41.11446
7.7584388256073	42.11955
7.77406883239746	42.62399
7.78969883918762	42.7527
7.80531883239746	42.51344
7.82094883918762	41.76855
7.83656883239746	40.24496
7.85219883918762	37.65973
7.86781883239746	33.82497
7.88344883918762	28.76076
7.89907884597778	22.70854
7.91469883918762	15.99646
7.93032884597778	8.905823
7.94594883918762	1.554718
7.96157884597778	-6.196335
7.97719883918762	-14.62891
7.99282884597778	-24.05954
8.00845885276794	-34.71451
8.02407884597778	-46.65109
8.03970885276794	-59.71819
8.05532884597778	-73.64168
8.07095885276794	-87.85764
8.08657884597778	-101.4554
8.10220885276794	-113.1785
8.11783885955811	-121.5476
8.13345885276794	-125.2484
8.14908885955811	-123.6019
8.16470885276794	-116.9295
8.18033885955811	-106.4995
8.19595885276794	-94.25531
8.21158885955811	-82.1188
8.22721886634827	-71.40495
8.24283885955811	-62.51047
8.25846886634827	-54.97389
8.27408885955811	-47.95119
8.28971886634827	-40.68053
8.30533885955811	-32.8755
8.32096886634827	-24.80513
8.33659887313843	-17.06685
8.35221886634827	-10.243
8.36784887313843	-4.623978
8.38346886634827	-0.1175537
8.39909887313843	3.670303
8.41472887992859	7.147217
8.43034887313843	10.55009
8.44597887992859	13.83176
8.46159887313843	16.76985
8.47722887992859	19.08607
8.49284887313843	20.62843
8.50847887992859	21.46245
8.52410888671875	21.79549
8.53972887992859	21.93275
8.55535888671875	22.02011
8.57097887992859	22.02298
8.58660888671875	21.73676
8.60222887992859	20.84489
8.61785888671875	19.09605
8.63348889350891	16.39786
8.64910888671875	12.89569
8.66473889350891	8.869751
8.68035888671875	4.680847
8.69598889350891	0.5764008
8.71160888671875	-3.379471
8.72723889350891	-7.328171
8.74286890029907	-11.5555
8.75848889350891	-16.38763
8.77411890029907	-22.23244
8.78973889350891	-29.4104
8.80536890029907	-38.08568
8.82098889350891	-47.9632
8.83661890029907	-58.12018
8.85224890708923	-67.00688
8.86786890029907	-72.75868
8.88349890708923	-73.79469
8.89911890029907	-69.38734
8.91474890708923	-60.10177
8.93036890029907	-47.56863
8.94599890708923	-34.04858
8.96162891387939	-21.56608
8.97724890708923	-11.37196
8.99287891387939	-3.750427
9.00849890708923	1.748894
9.02412891387939	5.803398
9.03974890708923	8.948887
9.05537891387939	11.31083
9.07100892066956	12.74
9.08662891387939	13.0192
9.10225892066956	12.20102
9.11787891387939	10.64934
9.13350892066956	8.976797
9.14912891387939	7.837317
9.16475892066956	7.63394
9.18038892745972	8.442229
9.19600892066956	9.992118
9.21163892745972	11.85589
9.22725892066956	13.61584
9.24288892745972	14.96809
9.25850892066956	15.86961
9.27413892745972	16.40221
9.28976893424988	16.76183
9.30538892745972	16.99261
9.32101893424988	17.02087
9.33663892745972	16.59788
9.35226893424988	15.40868
9.36788892745972	13.24483
9.38351893424988	10.11265
9.39914894104004	6.366737
9.41476893424988	2.533241
9.43039894104004	-0.7607574
9.44601893424988	-3.162544
9.46164894104004	-4.615425
9.47726893424988	-5.419571
9.49289894104004	-6.125412
9.5085289478302	-7.39695
9.52414894104004	-9.93969
9.5397789478302	-14.32538
9.55539894104004	-20.86422
9.5710289478302	-29.29263
9.58664894104004	-38.56871
9.6022789478302	-46.89008
9.61790895462036	-52.06033
9.6335289478302	-52.17099
9.64915895462036	-46.31703
9.6647789478302	-35.07092
9.68040895462036	-20.32864
9.6960289478302	-4.666183
9.71165895462036	9.493835
9.72728896141052	20.67226
9.74290895462036	28.51224
9.75853896141052	33.5873
9.77415895462036	36.80988
9.78978896141052	38.98621
9.80540895462036	40.48428
9.82103896141052	41.33734
9.83666896820068	41.4711
9.85228896141052	40.93901
9.86791896820068	40.0453
9.88353896141052	39.30423
9.89916896820068	39.21709
9.91478896141052	40.04051
9.93041896820068	41.7467
9.94604897499084	43.92612
9.96166896820068	45.9949
9.97729897499084	47.35312
9.99291896820068	47.60172
10.0085489749908	46.616
10.0241689682007	44.53946
10.0397989749908	41.66296
10.055428981781	38.26328
10.0710489749908	34.51761
10.086678981781	30.4274
10.1022989749908	25.88333
10.117928981781	20.76401
10.1335489749908	15.02615
10.149178981781	8.739777
10.1648089885712	2.109009
10.180428981781	-4.626953
10.1960589885712	-11.19553
10.211678981781	-17.40619
10.2273089885712	-23.16492
10.242928981781	-28.53052
10.2585589885712	-33.69958
10.2741889953613	-39.02652
10.2898089885712	-44.9129
10.3054389953613	-51.784
10.3210589885712	-59.75717
10.3366889953613	-68.44101
10.3523089885712	-76.70941
10.3679389953613	-82.84189
10.3835690021515	-84.78537
10.3991889953613	-80.84308
10.4148190021515	-70.25916
10.4304389953613	-53.59882
10.4460690021515	-32.75504
10.4616889953613	-10.39972
10.4773190021515	10.72864
10.4929487705231	28.65173
10.5085690021515	42.46857
10.5241987705231	52.38269
10.5398190021515	59.26538
10.5554487705231	64.13736
10.5710787773132	67.75839
10.5866987705231	70.44254
10.6023287773132	72.18323
10.6179487705231	72.86282
10.6335787773132	72.5502
10.6491987705231	71.56113
10.6648287773132	70.40506
10.6804587841034	69.5918
10.6960787773132	69.3689
10.7117087841034	69.64151
10.7273287773132	70.00943
10.7429587841034	69.96497
10.7585787773132	69.13898
10.7742087841034	67.36066
10.7898387908936	64.71957
10.8054587841034	61.35193
10.8210887908936	57.35107
10.8367087841034	52.66989
10.8523387908936	47.16156
10.8679587841034	40.66968
10.8835887908936	33.14151
10.8992187976837	24.6246
10.9148387908936	15.25128
10.9304687976837	5.218781
10.9460887908936	-5.229095
10.9617187976837	-15.79907
10.9773387908936	-26.14688
10.9929687976837	-35.95959
11.0085988044739	-44.99005
11.0242187976837	-53.19458
11.0398488044739	-60.75769
11.0554687976837	-68.07184
11.0710988044739	-75.58185
11.0867187976837	-83.59631
11.1023488044739	-91.9278
11.117978811264	-99.66925
11.1335988044739	-105.2032
11.149228811264	-106.4738
11.1648488044739	-101.7034
11.180478811264	-90.09186
11.1960988044739	-72.29736
11.211728811264	-50.34717
11.2273588180542	-27.07355
11.242978811264	-5.215576
11.2586088180542	13.37067
11.274228811264	27.94617
11.2898588180542	38.79749
11.305478811264	46.64075
11.3211088180542	52.20966
11.3367388248444	55.94928
11.3523588180542	58.12183
11.3679888248444	58.97083
11.3836088180542	58.9173
11.3992388248444	58.57562
11.4148588180542	58.57355
11.4304888248444	59.37665
11.4461188316345	61.01923
11.4617388248444	63.10272
11.4773688316345	64.93536
11.4929888248444	65.79211
11.5086188316345	65.21643
11.5242388248444	63.22131
11.5398688316345	60.21741
11.5554988384247	56.73096
11.5711188316345	53.14917
11.5867488384247	49.4342
11.6023688316345	45.18823
11.6179988384247	39.85962
11.6336188316345	33.07581
11.6492488384247	24.86469
11.6648788452148	15.81586
11.6804988384247	6.793091
11.6961288452148	-1.352966
11.7117488384247	-8.07196
11.7273788452148	-13.3512
11.7429988384247	-17.60986
11.7586288452148	-21.55328
11.774258852005	-25.89862
11.7898788452148	-31.27814
11.805508852005	-38.01624
11.8211288452148	-46.05133
11.836758852005	-54.73669
11.8523788452148	-62.74353
11.868008852005	-68.24054
11.8836388587952	-69.24426
11.899258852005	-64.31201
11.9148888587952	-53.15405
11.930508852005	-36.89697
11.9461388587952	-17.82941
11.961758852005	1.259399
11.9773888587952	17.99597
11.9930188655853	31.04272
12.0086388587952	40.19293
12.0242688655853	46.09808
12.0398888587952	49.6842
12.0555188655853	51.67108
12.0711388587952	52.40466
12.0867688655853	51.96008
12.1023988723755	50.44202
12.1180188655853	48.15045
12.1336488723755	45.61859
12.1492688655853	43.3587
12.1648988723755	41.69751
12.1805188655853	40.60638
12.1961488723755	39.7334
12.2117788791656	38.66736
12.2273988723755	37.1142
12.2430288791656	35.12866
12.2586488723755	32.98865
12.2742788791656	31.07599
12.2898988723755	29.54645
12.3055288791656	28.24176
12.3211588859558	26.61816
12.3367788791656	23.97955
12.3524088859558	19.75165
12.3680288791656	13.75043
12.3836588859558	6.288513
12.3992788791656	-1.888672
12.4149088859558	-9.877563
12.430538892746	-16.92438
12.4461588859558	-22.64417
12.461788892746	-27.16064
12.4774088859558	-31.02588
12.493038892746	-35.00116
12.5086588859558	-39.84912
12.524288892746	-46.11151
12.5399188995361	-53.87238
12.555538892746	-62.56427
12.5711688995361	-70.88971
12.586788892746	-76.95441
12.6024188995361	-78.71118
12.618038892746	-74.64099
12.6336688995361	-64.32678
12.6492989063263	-48.75305
12.6649188995361	-30.12103
12.6805489063263	-11.14038
12.6961688995361	5.776855
12.7117989063263	19.20593
12.7274188995361	28.91138
12.7430489063263	35.55414
12.7586789131165	40.12482
12.7742989063263	43.44336
12.7899289131165	45.93451
12.8055489063263	47.67218
12.8211789131165	48.60309
12.8368089199066	48.83777
12.8524289131165	48.65204
12.8680589199066	48.48444
12.8836789131165	48.70258
12.8993089199066	49.45599
12.9149289131165	50.59329
12.9305589199066	51.68381
12.9461889266968	52.21115
12.9618089199066	51.77451
12.9774389266968	50.2251
12.9930589199066	47.66428
13.0086889266968	44.42194
13.0243089199066	40.82495
13.0399389266968	37.08243
13.0555689334869	33.17145
13.0711889266968	28.84973
13.0868189334869	23.79721
13.1024389266968	17.87411
13.1180689334869	11.18597
13.1336889266968	4.119934
13.1493189334869	-2.774078
13.1649489402771	-9.026001
13.1805689334869	-14.40378
13.1961989402771	-18.96307
13.2118189334869	-23.00626
13.2274489402771	-26.93103
13.2430689334869	-31.10904
13.2586989402771	-35.9068
13.2743289470673	-41.63235
13.2899489402771	-48.39996
13.3055789470673	-55.87897
13.3211989402771	-63.10931
13.3368289470673	-68.46106
13.3524489402771	-70.0777
13.3680789470673	-66.48114
13.3837089538574	-57.23236
13.3993289470673	-43.25974
13.4149589538574	-26.63055
13.4305789470673	-9.837372
13.4462089538574	4.961945
13.4618289470673	16.53534
13.4774589538574	24.69519
13.4930889606476	30.0174
13.5087089538574	33.38821
13.5243389606476	35.5426
13.5399589538574	36.89227
13.5555889606476	37.56711
13.5712089538574	37.61679
13.5868389606476	37.10507
13.6024689674377	36.26276
13.6180889606476	35.37051
13.6337189674377	34.63773
13.6493389606476	34.11139
13.6649689674377	33.65073
13.6805889606476	33.01593
13.6962189674377	32.0206
13.7118489742279	30.62228
13.7274689674377	28.91891
13.7430989742279	27.12311
13.7587189674377	25.36954
13.7743489742279	23.633
13.7899689674377	21.78357
13.8055989742279	19.60803
13.8212289810181	16.9292
13.8368489742279	13.65213
13.8524789810181	9.738342
13.8680989742279	5.165588
13.8837289810181	-0.01376343
13.8993489742279	-5.70166
13.9149789810181	-11.76166
13.9306089878082	-17.95752
13.9462289810181	-24.03201
13.9618589878082	-29.75586
13.9774789810181	-34.99026
13.9931089878082	-39.79932
14.0087289810181	-44.43475
14.0243589878082	-49.33905
14.0399889945984	-54.98053
14.0556089878082	-61.63782
14.0712389945984	-69.00983
14.0868589878082	-76.13437
14.1024889945984	-81.40585
14.1181089878082	-83.02682
14.1337389945984	-79.67928
14.1493690013885	-71.05
14.1649889945984	-58.05632
14.1806190013885	-42.58234
14.1962389945984	-26.90741
14.2118690013885	-12.95103
14.2274889945984	-1.91539
14.2431190013885	5.929062
14.2587487697601	11.06207
14.2743690013885	14.27113
14.2899987697601	16.41046
14.3056190013885	18.11845
14.3212487697601	19.77985
14.3368690013885	21.52016
14.3524987697601	23.2908
14.3681287765503	24.96466
14.3837487697601	26.48978
14.3993787765503	27.94434
14.4149987697601	29.43947
14.4306287765503	31.11938
14.4462487697601	32.98187
14.4618787765503	34.95766
14.4775087833405	36.86951
14.4931287765503	38.6187
14.5087587833405	40.21733
14.5243787765503	41.78191
14.5400087833405	43.487
14.5556287765503	45.34097
14.5712587833405	47.20418
14.5868887901306	48.74608
14.6025087833405	49.59514
14.6181387901306	49.47
14.6337587833405	48.28679
14.6493887901306	46.15753
14.6650087833405	43.35802
14.6806387901306	40.18839
14.6962687969208	36.79305
14.7118887901306	33.13455
14.7275187969208	28.96501
14.7431387901306	23.93013
14.7587687969208	17.70541
14.7743887901306	10.08485
14.7900187969208	1.046539
14.8056488037109	-9.268242
14.8212687969208	-20.56106
14.8368988037109	-32.25951
14.8525187969208	-43.38329
14.8681488037109	-52.44871
14.8837687969208	-57.65894
14.8993988037109	-57.40425
14.9150288105011	-50.9304
14.9306488037109	-38.8598
14.9462788105011	-23.29948
14.9618988037109	-7.219296
14.9775288105011	6.416397
14.9931488037109	15.62472
15.0087788105011	19.8778
15.0244088172913	19.86107
15.0400288105011	16.80784
15.0556588172913	11.9158
15.0712788105011	5.934137
15.0869088172913	-0.5994549
15.1025288105011	-7.001667
15.1181588172913	-12.27788
15.1337888240814	-15.2892
15.1494088172913	-15.24421
15.1650388240814	-12.16309
15.1806588172913	-7.017473
15.1962888240814	-1.277976
15.2119088172913	3.610851
15.2275388240814	6.823965
15.2431688308716	8.360352
15.2587888240814	8.793476
15.2744188308716	8.843636
15.2900388240814	8.954281
15.3056688308716	9.203224
15.3212888240814	9.396694
15.3369188308716	9.360252
15.3525488376617	9.034882
15.3681688308716	8.464699
15.3837988376617	7.656471
15.3994188308716	6.519676
15.4150488376617	4.904991
15.4306788444519	2.753166
15.4462988376617	0.2057037
15.4619288444519	-2.423073
15.4775488376617	-4.751656
15.4931788444519	-6.623665
15.5087988376617	-8.134544
15.5244288444519	-9.63607
15.5400588512421	-11.59694
15.5556788444519	-14.38646
15.5713088512421	-18.16034
15.5869288444519	-22.77095
15.6025588512421	-27.70323
15.6181788444519	-32.08115
15.6338088512421	-34.80746
15.6494388580322	-34.79027
15.6650588512421	-31.31897
15.6806888580322	-24.44615
15.6963088512421	-15.08727
15.7119388580322	-4.793137
15.7275588512421	4.743973
15.7431888580322	12.22623
15.7588188648224	17.15022
15.7744388580322	19.80641
15.7900688648224	21.04623
15.8056888580322	21.8246
15.8213188648224	22.78868
15.8369388580322	24.09038
15.8525688648224	25.46355
15.8681988716125	26.51602
15.8838188648224	26.94011
15.8994488716125	26.76381
15.9150688648224	26.23088
15.9306988716125	25.6575
15.9463188648224	25.22977
15.9619488716125	24.97528
15.9775788784027	24.95218
15.9931988716125	25.43417
16.0088288784027	27.02368
16.0244488716125	30.35175
16.0400788784027	35.67709
16.0556988716125	42.44785
16.0713288784027	49.18768
16.0869588851929	53.95926
16.1025788784027	55.11542
16.1182088851929	52.0582
16.1338288784027	45.46588
16.1494588851929	37.05316
16.1650788784027	28.76129
16.1807088851929	22.08521
16.196338891983	17.53036
16.2119588851929	14.62744
16.227588891983	12.31201
16.2432088851929	9.379395
16.258838891983	5.000641
16.2744588851929	-1.091217
16.290088891983	-8.505829
16.3057188987732	-16.3031
16.321338891983	-23.17014
16.3369688987732	-27.77316
16.352588891983	-29.09607
16.3682188987732	-26.73407
16.383838891983	-21.03818
16.3994688987732	-12.96356
16.4150989055634	-3.761261
16.4307188987732	5.430267
16.4463489055634	13.84998
16.4619688987732	21.25555
16.4775989055634	27.7478
16.4932188987732	33.57281
16.5088489055634	38.85461
16.5244789123535	43.41864
16.5400989055634	46.79523
16.5557289123535	48.40894
16.5713489055634	47.74963
16.5869789123535	44.61322
16.6025989055634	39.12347
16.6182289123535	31.65765
16.6338589191437	22.63525
16.6494789123535	12.32483
16.6651089191437	0.8203125
16.6807289123535	-11.78387
16.6963589191437	-25.18268
16.7119789123535	-38.73065
16.7276089191437	-51.51849
16.7432389259338	-62.71863
16.7588589191437	-71.90088
16.7744889259338	-79.21753
16.7901089191437	-85.27576
16.8057389259338	-90.79974
16.8213589191437	-96.26294
16.8369889259338	-101.7073
16.852618932724	-106.8888
16.8682389259338	-111.5402
16.883868932724	-115.6566
16.8994889259338	-119.5568
16.915118932724	-123.6594
16.9307389259338	-128.2638
16.946368932724	-133.3239
16.9619989395142	-138.4247
16.977618932724	-142.979
16.9932489395142	-146.3347
17.008868932724	-147.8986
17.0244989395142	-147.1343
17.040118932724	-143.5807
17.0557489395142	-136.9461
17.0713789463043	-127.3684
17.0869989395142	-115.5416
17.1026289463043	-102.7578
17.1182489395142	-90.67023
17.1338789463043	-80.88055
17.1494989395142	-74.45752
17.1651289463043	-71.75439
17.1807589530945	-72.38385
17.1963789463043	-75.37781
17.2120089530945	-79.60724
17.2276289463043	-83.98572
17.2432589530945	-87.61237
17.2588789463043	-89.78015
17.2745089530945	-89.99585
17.2901389598846	-87.92126
17.3057589530945	-83.51074
17.3213889598846	-77.04828
17.3370089530945	-69.06958
17.3526389598846	-60.36115
17.3682589530945	-51.6662
17.3838889598846	-43.55255
17.3995189666748	-36.24512
17.4151389598846	-29.63446
17.4307689666748	-23.4035
17.4463889598846	-17.29956
17.4620189666748	-11.28998
17.4776389598846	-5.580627
17.4932689666748	-0.5206909
17.508898973465	3.658569
17.5245189666748	6.920105
17.540148973465	9.578796
17.5557689666748	12.14795
17.571398973465	15.1106
17.5870189666748	18.62878
17.602648973465	22.39319
17.6182789802551	25.68286
17.633898973465	27.50256
17.6495289802551	27.04065
17.665148973465	23.9339
17.6807789802551	18.60553
17.6964089870453	12.29962
17.7120289802551	6.914154
17.7276589870453	4.37085
17.7432789802551	6.102234
17.7589089870453	12.54956
17.7745289802551	22.91391
17.7901589870453	35.57193
17.8057889938354	48.5733
17.8214089870453	60.36075
17.8370389938354	70.11359
17.8526589870453	77.81128
17.8682889938354	83.85919
17.8839089870453	88.67416
17.8995389938354	92.44598
17.9151690006256	95.03195
17.9307889938354	96.26425
17.9464190006256	96.10831
17.9620389938354	94.76752
17.9776690006256	92.59943
17.9932889938354	89.94382
18.0089190006256	87.04395
18.0245487689972	83.97134
18.0401690006256	80.78674
18.0557987689972	77.53708
18.0714190006256	74.40381
18.0870487689972	71.54062
18.1026690006256	69.01614
18.1182987689972	66.65793
18.1339287757874	64.03851
18.1495487689972	60.60687
18.1651787757874	55.88345
18.1807987689972	49.68164
18.1964287757874	42.15988
18.2120487689972	33.91382
18.2276787757874	25.67184
18.2433087825775	18.06686
18.2589287757874	11.37778
18.2745587825775	5.379272
18.2901787757874	-0.4766846
18.3058087825775	-6.861298
18.3214287757874	-14.16833
18.3370587825775	-22.35114
18.3526887893677	-30.77359
18.3683087825775	-38.31949
18.3839387893677	-43.57913
18.3995587825775	-45.10281
18.4151887893677	-41.78751
18.4308087825775	-33.19238
18.4464387893677	-19.76324
18.4620687961578	-2.776947
18.4776887893677	15.83478
18.4933187961578	34.05405
18.5089387893677	50.31009
18.5245687961578	63.92966
18.5401887893677	75.16324
18.5558187961578	84.89563
18.571448802948	94.02884
18.5870687961578	102.8445
18.602698802948	110.6627
18.6183187961578	115.8818
18.633948802948	116.506
18.6495687961578	110.871
18.665198802948	98.42874
18.6808288097382	79.97827
18.696448802948	57.3811
18.7120788097382	32.78241
18.727698802948	7.824707
18.7433288097382	-16.72284
18.758948802948	-40.79721
18.7745788097382	-64.44678
18.7902088165283	-87.21396
18.8058288097382	-108.0558
18.8214588165283	-125.7078
18.8370788097382	-139.2631
18.8527088165283	-148.6336
18.8683288097382	-154.5354
18.8839588165283	-158.0396
18.8995888233185	-160.0296
18.9152088165283	-160.8956
18.9308388233185	-160.5849
18.9464588165283	-159.0033
18.9620888233185	-156.3056
18.9777088165283	-153.0102
18.9933388233185	-149.967
19.0089688301086	-148.0909
19.0245888233185	-148.0268
19.0402188301086	-149.899
19.0558388233185	-153.0909
19.0714688301086	-156.2246
19.0870888233185	-157.3437
19.1027188301086	-154.4987
19.1183488368988	-146.321
19.1339688301086	-132.5755
19.1495988368988	-114.2181
19.1652188301086	-92.98961
19.1808488368988	-70.72266
19.1964688301086	-48.75142
19.2120988368988	-27.6403
19.227728843689	-7.376328
19.2433488368988	12.14459
19.258978843689	30.87833
19.2745988368988	48.43575
19.290228843689	64.2558
19.3058488368988	77.9028
19.321478843689	89.15964
19.3371088504791	98.00473
19.352728843689	104.4815
19.3683588504791	108.6192
19.383978843689	110.3764
19.3996088504791	109.8223
19.415228843689	107.16
19.4308588504791	102.8925
19.4464888572693	97.76502
19.4621088504791	92.71415
19.4777388572693	88.61488
19.4933588504791	85.99466
19.5089888572693	84.78866
19.5246088504791	84.26146
19.5402388572693	83.33385
19.5558688640594	80.9578
19.5714888572693	76.539
19.5871188640594	70.20068
19.6027388572693	62.64795
19.6183688640594	54.82315
19.6339888572693	47.49399
19.6496188640594	41.04418
19.6652488708496	35.47076
19.6808688640594	30.5629
19.6964988708496	26.00159
19.7121188640594	21.40331
19.7277488708496	16.33332
19.7433688640594	10.39929
19.7589988708496	3.510166
19.7746288776398	-3.807644
19.7902488708496	-10.32799
19.8058788776398	-14.43749
19.8214988708496	-14.71848
19.8371288776398	-10.55276
19.8527488708496	-2.491371
19.8683788776398	7.946594
19.8840088844299	18.82632
19.8996288776398	28.51921
19.9152588844299	36.20202
19.9308788776398	41.93634
19.9465088844299	46.35814
19.9621388912201	50.24118
19.9777588844299	54.13647
19.9933888912201	58.21934
20.0090088844299	62.39723
20.0246388912201	66.46392
20.0402588844299	70.19392
20.0558888912201	73.38099
20.0715188980103	75.80949
20.0871388912201	77.19962
20.1027688980103	77.25359
20.1183888912201	75.74763
20.1340188980103	72.64906
20.1496388912201	68.22686
20.1652688980103	63.07308
20.1808989048004	57.95876
20.1965188980103	53.48684
20.2121489048004	49.83177
20.2277688980103	46.50873
20.2433989048004	42.55458
20.2590188980103	36.95092
20.2746489048004	29.10494
20.2902789115906	19.20498
20.3058989048004	8.254944
20.3215289115906	-2.331497
20.3371489048004	-11.28966
20.3527789115906	-17.95293
20.3683989048004	-22.45795
20.3840289115906	-25.58957
20.3996589183807	-28.41609
20.4152789115906	-31.90392
20.4309089183807	-36.63965
20.4465289115906	-42.66969
20.4621589183807	-49.39926
20.4777789115906	-55.68468
20.4934089183807	-60.07901
20.5090389251709	-61.28683
20.5246589183807	-58.56924
20.5402889251709	-52.07514
20.5559089183807	-42.82668
20.5715389251709	-32.44492
20.5871589183807	-22.67178
20.6027889251709	-14.92765
20.6184189319611	-10.00157
20.6340389251709	-7.881363
20.6496689319611	-7.838039
20.6652889251709	-8.567955
20.6809189319611	-8.563213
20.6965389251709	-6.567123
20.7121689319611	-1.964352
20.7277989387512	5.03133
20.7434189319611	13.59872
20.7590489387512	22.74885
20.7746689319611	31.80494
20.7902989387512	40.54134
20.8059189319611	49.00056
20.8215489387512	57.06858
20.8371789455414	64.20438
20.8527989387512	69.603
20.8684289455414	72.6289
20.8840489387512	73.29385
20.8996789455414	72.27819
20.9152989387512	70.59793
20.9309289455414	68.94598
20.9465589523315	67.27377
20.9621789455414	64.8632
20.9778089523315	60.82579
20.9934289455414	54.73365
21.0090589523315	47.01
21.0246789455414	38.70896
21.0403089523315	31.01248
21.0559389591217	24.60301
21.0715589523315	19.26356
21.0871889591217	14.03164
21.1028089523315	7.604208
21.1184389591217	-1.053268
21.1340589523315	-12.3075
21.1496889591217	-25.70462
21.1653189659119	-40.08952
21.1809389591217	-53.77604
21.1965689659119	-64.89362
21.2121889591217	-71.76134
21.2278189659119	-73.29991
21.2434389591217	-69.33698
21.2590689659119	-60.67671
21.274698972702	-48.88769
21.2903189659119	-35.84738
21.305948972702	-23.23775
21.3215689659119	-12.08464
21.337198972702	-2.74025
21.3528189659119	4.965149
21.368448972702	11.47701
21.3840789794922	17.18224
21.399698972702	22.32157
21.4153289794922	27.04332
21.430948972702	31.43813
21.4465789794922	35.62418
21.462198972702	39.7577
21.4778289794922	43.96965
21.4934589862823	48.24844
21.5090789794922	52.4552
21.5247089862823	56.28888
21.5403289794922	59.38187
21.5559589862823	61.54568
21.5715789794922	62.83568
21.5872089862823	63.65186
21.6028389930725	64.55528
21.6184589862823	66.03647
21.6340889930725	68.26511
21.6497089862823	71.01741
21.6653389930725	73.71239
21.6809589862823	75.69093
21.6965889930725	76.4872
21.7122189998627	75.9985
21.7278389930725	74.5262
21.7434689998627	72.6506
21.7590889930725	71.05209
21.7747189998627	70.29245
21.7903389930725	70.74231
21.8059689998627	72.35944
21.8215987682343	74.6781
21.8372189998627	76.75519
21.8528487682343	77.21036
21.8684689998627	74.62125
21.8840987682343	67.96722
21.8997189998627	57.14038
21.9153487682343	43.20691
21.9309787750244	28.16092
21.9465987682343	14.25443
21.9622287750244	3.226196
21.9778487682343	-4.351166
21.9934787750244	-9.177826
22.0090987682343	-12.76633
22.0247287750244	-16.74707
22.0403587818146	-22.22174
22.0559787750244	-29.4259
22.0716087818146	-37.89764
22.0872287750244	-46.82977
22.1028587818146	-55.38895
22.1184787750244	-63.0195
22.1341087818146	-69.44635
22.1497387886047	-74.6767
22.1653587818146	-78.91815
22.1809887886047	-82.56879
22.1966087818146	-86.05847
22.2122387886047	-89.76733
22.2278587818146	-93.84479
22.2434887886047	-98.14001
22.2591187953949	-102.3368
22.2747387886047	-106.0644
22.2903687953949	-109.0335
22.3059887886047	-111.1068
22.3216187953949	-112.3116
22.3372387886047	-112.7393
22.3528687953949	-112.5794
22.3684988021851	-112.0584
22.3841187953949	-111.3796
22.3997488021851	-110.7103
22.4153687953949	-110.0818
22.4309988021851	-109.3386
22.4466187953949	-108.1563
22.4622488021851	-106.0692
22.4778788089752	-102.6185
22.4934988021851	-97.48401
22.5091288089752	-90.58447
22.5247488021851	-82.14648
22.5403788089752	-72.77899
22.5560088157654	-63.45892
22.5716288089752	-55.3374
22.5872588157654	-49.46564
22.6028788089752	-46.38098
22.6185088157654	-45.82245
22.6341288089752	-46.69031
22.6497588157654	-47.4137
22.6653888225555	-46.45709
22.6810088157654	-42.90961
22.6966388225555	-36.72601
22.7122588157654	-28.62787
22.7278888225555	-19.7077
22.7435088157654	-10.87671
22.7591388225555	-2.59729
22.7747688293457	5.170288
22.7903888225555	12.71674
22.8060188293457	20.33014
22.8216388225555	28.02942
22.8372688293457	35.60742
22.8528888225555	42.64148
22.8685188293457	48.5799
22.8841488361359	52.87823
22.8997688293457	55.05713
22.9153988361359	54.79407
22.9310188293457	51.99249
22.9466488361359	46.85455
22.9622688293457	39.84937
22.9778988361359	31.7345
22.993528842926	23.41425
23.0091488361359	15.7887
23.024778842926	9.610474
23.0403988361359	5.325439
23.056028842926	2.892944
23.0716488361359	1.764709
23.087278842926	1.064575
23.1029088497162	-0.1644287
23.118528842926	-2.654236
23.1341588497162	-6.643311
23.149778842926	-11.86969
23.1654088497162	-17.7196
23.181028842926	-23.43787
23.1966588497162	-28.45844
23.2122888565063	-32.48962
23.2279088497162	-35.5614
23.2435388565063	-37.93274
23.2591588497162	-40.09875
23.2747888565063	-42.68695
23.2904088497162	-46.35736
23.3060388565063	-51.48596
23.3216688632965	-57.9621
23.3372888565063	-64.99786
23.3529188632965	-71.32086
23.3685388565063	-75.57379
23.3841688632965	-76.88141
23.3997888565063	-75.18689
23.4154188632965	-71.19757
23.4310488700867	-66.06244
23.4466688632965	-60.86267
23.4622988700867	-56.25409
23.4779188632965	-52.36804
23.4935488700867	-48.91284
23.5091688632965	-45.43103
23.5247988700867	-41.51306
23.5404288768768	-36.85553
23.5560488700867	-31.26886
23.5716788768768	-24.73871
23.5872988700867	-17.44812
23.6029288768768	-9.811279
23.6185488700867	-2.416199
23.6341788768768	4.172424
23.649808883667	9.594849
23.6654288768768	13.73358
23.681058883667	16.76337
23.6966788768768	18.98798
23.712308883667	20.69232
23.7279288768768	22.00183
23.743558883667	22.82233
23.7591888904572	22.89685
23.774808883667	21.94708
23.7904388904572	19.80188
23.806058883667	16.46002
23.8216888904572	12.08362
23.837308883667	6.968811
23.8529388904572	1.305603
23.8685688972473	-4.737
23.8841888904572	-11.11795
23.8998188972473	-17.87943
23.9154388904572	-25.08499
23.9310688972473	-32.76544
23.9466888904572	-40.82208
23.9623188972473	-48.87668
23.9779489040375	-56.19107
23.9935688972473	-61.67828
24.0091989040375	-64.06036
24.0248188972473	-62.26755
24.0404489040375	-55.86334
24.0560688972473	-45.28696
24.0716989040375	-31.87415
24.0873289108276	-17.43915
24.1029489040375	-3.732697
24.1185789108276	8.086731
24.1341989040375	17.5993
24.1498289108276	25.1557
24.1654489040375	31.44467
24.1810789108276	37.13971
24.1967089176178	42.60294
24.2123289108276	47.74725
24.2279589176178	52.1756
24.2435789108276	55.27142
24.2592089176178	56.54474
24.2748289108276	55.75027
24.2904589176178	53.08655
24.306088924408	49.19879
24.3217089176178	44.99701
24.337338924408	41.4339
24.3529589176178	39.11591
24.368588924408	38.13336
24.3842089176178	37.95892
24.399838924408	37.67773
24.4154689311981	36.30655
24.431088924408	33.19592
24.4467189311981	28.17783
24.462338924408	21.61667
24.4779689311981	14.15543
24.493588924408	6.49707
24.5092189311981	-0.8654938
24.5248489379883	-7.71933
24.5404689311981	-14.14621
24.5560989379883	-20.45493
24.5717189311981	-26.99904
24.5873489379883	-34.07347
24.6029689311981	-41.66736
24.6185989379883	-49.22153
24.6342289447784	-55.63232
24.6498489379883	-59.32076
24.6654789447784	-58.75247
24.6810989379883	-53.01581
24.6967289447784	-42.30411
24.7123489379883	-27.99756
24.7279789447784	-12.23843
24.7436089515686	2.701202
24.7592289447784	15.17519
24.7748589515686	24.5636
24.7904789447784	31.18869
24.8061089515686	35.96091
24.8217389583588	39.84949
24.8373589515686	43.44781
24.8529889583588	46.85315
24.8686089515686	49.7739
24.8842389583588	51.77135
24.8998589515686	52.54156
24.9154889583588	52.01468
24.9311189651489	50.46994
24.9467389583588	48.32875
24.9623689651489	46.07323
24.9779889583588	44.01048
24.9936189651489	42.19484
25.0092389583588	40.46357
25.0248689651489	38.50591
25.0404989719391	36.02208
25.0561189651489	32.78262
25.0717489719391	28.75706
25.0873689651489	24.01222
25.1029989719391	18.71536
25.1186189651489	13.08424
25.1342489719391	7.260414
25.1498789787292	1.313148
25.1654989719391	-4.74102
25.1811289787292	-10.97193
25.1967489719391	-17.5789
25.2123789787292	-24.80773
25.2279989719391	-32.81545
25.2436289787292	-41.51569
25.2592589855194	-50.30569
25.2748789787292	-57.98966
25.2905089855194	-62.99284
25.3061289787292	-63.73333
25.3217589855194	-59.22261
25.3373789787292	-49.54718
25.3530089855194	-35.9124
25.3686389923096	-20.32348
25.3842589855194	-4.915953
25.3998889923096	8.726062
25.4155089855194	19.94736
25.4311389923096	28.97793
25.4467589855194	36.60528
25.4623889923096	43.64088
25.4780189990997	50.54583
25.4936389923096	57.29299
25.5092689990997	63.48136
25.5248889923096	68.54209
25.5405189990997	71.98477
25.5561389923096	73.59714
25.5717689990997	73.51907
25.5873987674713	72.15706
25.6030189990997	70.09412
25.6186487674713	67.85934
25.6342689990997	65.81406
25.6498987674713	63.96293
25.6655189990997	62.04684
25.6811487674713	59.65017
25.6967787742615	56.33113
25.7123987674713	51.77852
25.7280287742615	45.93908
25.7436487674713	38.96477
25.7592787742615	31.21918
25.7748987674713	23.17774
25.7905287742615	15.29153
25.8061587810516	7.90641
25.8217787742615	1.148674
25.8374087810516	-5.109612
25.8530287742615	-11.24934
25.8686587810516	-17.75597
25.8842787742615	-24.9874
25.8999087810516	-32.88346
25.9155387878418	-40.73697
25.9311587810516	-47.23598
25.9467887878418	-50.72047
25.9624087810516	-49.81529
25.9780387878418	-43.94687
25.9936587810516	-33.73797
26.0092887878418	-20.83611
26.024918794632	-7.384514
26.0405387878418	4.72805
26.056168794632	14.43985
26.0717887878418	21.6755
26.087418794632	27.06535
26.1030387878418	31.46356
26.118668794632	35.51139
26.1342988014221	39.42157
26.149918794632	43.09986
26.1655488014221	46.25179
26.181168794632	48.64556
26.1967988014221	50.08549
26.212418794632	50.46205
26.2280488014221	49.76411
26.2436788082123	48.07483
26.2592988014221	45.6777
26.2749288082123	42.9782
26.2905488014221	40.41864
26.3061788082123	38.32212
26.3217988014221	36.79334
26.3374288082123	35.61206
26.3530588150024	34.36908
26.3686788082123	32.62164
26.3843088150024	30.03523
26.3999288082123	26.59205
26.4155588150024	22.52592
26.4311788082123	18.25698
26.4468088150024	14.28128
26.4624388217926	11.0215
26.4780588150024	8.764192
26.4936888217926	7.69132
26.5093088150024	7.871238
26.5249388217926	9.201651
26.5405588150024	11.53895
26.5561888217926	14.64994
26.5718188285828	18.43641
26.5874388217926	23.00105
26.6030688285828	28.67117
26.6186888217926	35.78064
26.6343188285828	44.35982
26.6499388217926	53.91693
26.6655688285828	63.37092
26.6811988353729	71.48428
26.6968188285828	77.20281
26.7124488353729	80.07181
26.7280688285828	80.28773
26.7436988353729	78.44857
26.7593188285828	75.0959
26.7749488353729	70.39359
26.7905788421631	64.08112
26.8061988353729	55.75262
26.8218288421631	45.31055
26.8374488353729	33.21152
26.8530788421631	20.45252
26.8686988353729	8.295441
26.8843288421631	-2.198227
26.8999588489532	-10.41389
26.9155788421631	-16.3398
26.9312088489532	-20.42128
26.9468288421631	-23.30446
26.9624588489532	-25.61172
26.9780788421631	-27.88237
26.9937088489532	-30.57765
27.0093388557434	-34.12834
27.0249588489532	-38.95186
27.0405888557434	-45.27728
27.0562088489532	-53.04904
27.0718388557434	-61.88654
27.0874588489532	-71.23093
27.1030888557434	-80.53664
27.1187188625336	-89.51489
27.1343388557434	-98.19319
27.1499688625336	-106.7569
27.1655888557434	-115.3781
27.1812188625336	-123.9035
27.1968388557434	-131.8768
27.2124688625336	-138.5711
27.2280988693237	-143.2659
27.2437188625336	-145.3795
27.2593488693237	-144.4854
27.2749688625336	-140.3297
27.2905988693237	-132.8043
27.3062188625336	-122.0772
27.3218488693237	-108.6934
27.3374788761139	-93.65695
27.3530988693237	-78.22998
27.3687288761139	-63.5853
27.3843488693237	-50.46927
27.3999788761139	-39.01233
27.4156088829041	-28.77115
27.4312288761139	-19.08255
27.4468588829041	-9.443512
27.4624788761139	0.2793579
27.4781088829041	9.805359
27.4937288761139	18.66971
27.5093588829041	26.37494
27.5249888896942	32.65326
27.5406088829041	37.38724
27.5562388896942	40.6474
27.5718588829041	42.54874
27.5874888896942	43.1716
27.6031088829041	42.60983
27.6187388896942	41.05002
27.6343688964844	38.83133
27.6499888896942	36.49606
27.6656188964844	34.6778
27.6812388896942	33.93726
27.6968688964844	34.46442
27.7124888896942	36.00412
27.7281188964844	37.84967
27.7437489032745	39.06177
27.7593688964844	38.90765
27.7749989032745	37.01019
27.7906188964844	33.49246
27.8062489032745	28.79309
27.8218688964844	23.41531
27.8374989032745	17.64001
27.8531289100647	11.4491
27.8687489032745	4.650635
27.8843789100647	-2.914856
27.8999989032745	-11.12112
27.9156289100647	-19.47691
27.9312489032745	-27.15472
27.9468789100647	-33.17126
27.9625089168549	-36.68442
27.9781289100647	-37.19209
27.9937589168549	-34.63434
28.0093789100647	-29.50226
28.0250089168549	-22.64204
28.0406289100647	-15.06372
28.0562589168549	-7.717957
28.071888923645	-1.268967
28.0875089168549	4.035126
28.103138923645	8.216827
28.1187589168549	11.49568
28.134388923645	14.09294
28.1500089168549	16.05934
28.165638923645	17.34001
28.1812689304352	17.87471
28.196888923645	17.64987
28.2125189304352	16.8205
28.228138923645	15.6552
28.2437689304352	14.36798
28.259388923645	13.10025
28.2750189304352	11.83922
28.2906489372253	10.50279
28.3062689304352	9.003983
28.3218989372253	7.339188
28.3375189304352	5.581161
28.3531489372253	3.806305
28.3687689304352	2.045212
28.3843989372253	0.1820984
28.4000289440155	-1.921204
28.4156489372253	-4.382858
28.4312789440155	-7.228333
28.4468989372253	-10.2995
28.4625289440155	-13.34276
28.4781489372253	-16.12511
28.4937789440155	-18.49434
28.5094089508057	-20.51215
28.5250289440155	-22.44489
28.5406589508057	-24.70641
28.5562789440155	-27.7202
28.5719089508057	-31.82361
28.5875289440155	-37.0601
28.6031589508057	-43.11111
28.6187889575958	-49.28378
28.6344089508057	-54.48814
28.6500389575958	-57.57515
28.6656589508057	-57.65143
28.6812889575958	-54.39368
28.6969089508057	-48.20593
28.7125389575958	-40.13809
28.728168964386	-31.51216
28.7437889575958	-23.53528
28.759418964386	-16.9684
28.7750389575958	-11.95659
28.790668964386	-8.225784
28.8062889575958	-5.289948
28.821918964386	-2.803421
28.8375489711761	-0.5795441
28.853168964386	1.338455
28.8687989711761	2.85498
28.884418964386	3.905655
28.9000489711761	4.548569
28.915668964386	4.957672
28.9312989711761	5.324554
28.9469289779663	5.816864
28.9625489711761	6.466248
28.9781789779663	7.210464
28.9937989711761	7.940201
29.0094289779663	8.568573
29.0250489711761	9.073914
29.0406789779663	9.395737
29.0563089847565	9.499527
29.0719289779663	9.268066
29.0875589847565	8.603729
29.1031789779663	7.497131
29.1188089847565	6.054932
29.1344289779663	4.528854
29.1500589847565	3.214584
29.1656889915466	2.336578
29.1813089847565	1.889618
29.1969389915466	1.596054
29.2125589847565	0.9633789
29.2281889915466	-0.4792328
29.2438089847565	-2.929489
29.2594389915466	-6.120026
29.2750689983368	-9.20755
29.2906889915466	-10.9213
29.3063189983368	-9.926865
29.3219389915466	-5.285492
29.3375689983368	3.147736
29.3531889915466	14.66663
29.3688189983368	27.98825
29.3844487667084	41.81136
29.4000689983368	55.29787
29.4156987667084	68.33678
29.4313189983368	81.30254
29.4469487667084	94.61139
29.4625689983368	108.3192
29.4781987667084	121.9329
29.4938287734985	134.5691
29.5094487667084	145.4006
29.5250787734985	153.9965
29.5406987667084	160.5468
29.5563287734985	165.7875
29.5719487667084	170.951
29.5875787734985	177.5682
29.6032087802887	187.1832
29.6188287734985	200.7676
29.6344587802887	217.947
29.6500787734985	236.4747
29.6657087802887	252.5346
29.6813387870789	261.9902
29.6969587802887	262.0516
29.7125887870789	252.4857
29.7282087802887	235.6796
29.7438387870789	215.524
29.7594587802887	195.7206
29.7750887870789	178.5251
29.790718793869	164.3653
29.8063387870789	152.3217
29.821968793869	140.9805
29.8375887870789	128.9857
29.853218793869	115.2285
29.8688387870789	98.81277
29.884468793869	79.12277
29.9000988006592	56.1214
29.915718793869	30.51907
29.9313488006592	3.76593
29.946968793869	-22.4736
29.9625988006592	-46.95016
29.978218793869	-69.26172
29.9938488006592	-89.93246
30.0094788074493	-110.2609
30.0250988006592	-132.1583
30.0407288074493	-157.725
30.0563488006592	-188.6848
30.0719788074493	-225.33
30.0875988006592	-265.7383
30.1032288074493	-305.665
30.1188588142395	-339.4255
30.1344788074493	-361.4994
30.1501088142395	-368.175
30.1657288074493	-358.415
30.1813588142395	-333.5857
30.1969788074493	-296.4451
30.2126088142395	-249.9916
30.2282388210297	-196.9285
30.2438588142395	-139.8063
30.2594888210297	-81.6098
30.2751088142395	-25.88336
30.2907388210297	23.61688
30.3063588142395	63.8985
30.3219888210297	93.54321
30.3376188278198	112.882
30.3532388210297	123.3749
30.3688688278198	126.6997
30.3844888210297	124.0251
30.4001188278198	115.8608
30.4157388210297	102.4985
30.4313688278198	84.57324
30.44699883461	63.4682
30.4626188278198	41.09967
30.47824883461	19.32892
30.4938688278198	-0.625061
30.50949883461	-18.52325
30.5251188278198	-34.90314
30.54074883461	-50.61401
30.5563788414001	-66.30194
30.57199883461	-82.12689
30.5876288414001	-97.74231
30.60324883461	-112.5114
30.6188788414001	-125.5761
30.63449883461	-135.894
30.6501288414001	-142.2745
30.6657588481903	-143.4492
30.6813788414001	-138.4581
30.6970088481903	-127.1146
30.7126288414001	-110.463
30.7282588481903	-90.74854
30.7438788414001	-70.90912
30.7595088481903	-53.71039
30.7751388549805	-40.84387
30.7907588481903	-32.4881
30.8063888549805	-27.47717
30.8220088481903	-23.99994
30.8376388549805	-20.38263
30.8532588481903	-15.7301
30.8688888549805	-10.03955
30.8845188617706	-3.857666
30.9001388549805	2.141479
30.9157688617706	7.560669
30.9313888549805	12.33966
30.9470188617706	16.64294
30.9626388549805	20.56641
30.9782688617706	23.99622
30.9938988685608	26.65607
31.0095188617706	28.21649
31.0251488685608	28.44543
31.0407688617706	27.36108
31.0563988685608	25.14563
31.0720188617706	22.05396
31.0876488685608	18.25311
31.103278875351	13.75854
31.1188988685608	8.38916
31.134528875351	1.911072
31.1501488685608	-5.804932
31.165778875351	-14.60669
31.1813988685608	-23.99109
31.197028875351	-33.2149
31.2126588821411	-41.49323
31.228278875351	-48.34814
31.2439088821411	-53.76886
31.259528875351	-58.3432
31.2751588821411	-63.09631
31.290778875351	-69.16473
31.3064088821411	-77.40039
31.3220388889313	-88.06702
31.3376588821411	-100.5876
31.3532888889313	-113.4946
31.3689088821411	-124.6425
31.3845388889313	-131.5979
31.4001588821411	-132.3501
31.4157888889313	-125.8997
31.4314188957214	-112.7343
31.4470388889313	-94.65509
31.4626688957214	-74.29877
31.4782888889313	-54.22577
31.4939188957214	-36.19855
31.5095388889313	-20.81677
31.5251688957214	-7.674561
31.5407989025116	4.007507
31.5564188957214	14.86322
31.5720489025116	24.98059
31.5876688957214	33.9621
31.6032989025116	41.22028
31.6189188957214	46.39581
31.6345489025116	49.58893
31.6501789093018	51.32275
31.6657989025116	52.41589
31.6814289093018	53.60388
31.6970489025116	55.32629
31.7126789093018	57.62933
31.7282989025116	60.21228
31.7439289093018	62.6474
31.7595589160919	64.5874
31.7751789093018	65.86731
31.7908089160919	66.47668
31.8064289093018	66.5293
31.8220589160919	66.01593
31.8376889228821	64.68121
31.8533089160919	62.1236
31.8689389228821	57.86176
31.8845589160919	51.60956
31.9001889228821	43.409
31.9158089160919	33.72766
31.9314389228821	23.22449
31.9470689296722	12.69824
31.9626889228821	2.796509
31.9783189296722	-6.118164
31.9939389228821	-14.00946
32.0095689296722	-21.15643
32.0251889228821	-28.08472
32.0408189296722	-35.48047
32.0564489364624	-44.01862
32.0720689296722	-54.21497
32.0876989364624	-65.97858
32.1033189296722	-78.39825
32.1189489364624	-89.59686
32.1345689296722	-97.02209
32.1501989364624	-98.15106
32.1658289432526	-91.33466
32.1814489364624	-76.51202
32.1970789432526	-55.32629
32.2126989364624	-30.6886
32.2283289432526	-5.898804
32.2439489364624	16.26056
32.2595789432526	34.12939
32.2752089500427	47.26025
32.2908289432526	56.11859
32.3064589500427	61.65302
32.3220789432526	64.94049
32.3377089500427	66.99255
32.3533289432526	68.72076
32.3689589500427	70.92395
32.3845889568329	74.24371
32.4002089500427	79.12372
32.4158389568329	85.75464
32.4314589500427	93.97888
32.4470889568329	103.2664
32.4627089500427	112.6915
32.4783389568329	121.045
32.493968963623	127.0182
32.5095889568329	129.5323
32.525218963623	127.925
32.5408389568329	122.1185
32.556468963623	112.5623
32.5720889568329	100.0182
32.587718963623	85.32892
32.6033489704132	69.20447
32.618968963623	52.17267
32.6345989704132	34.61975
32.650218963623	16.9704
32.6658489704132	-0.1474609
32.681468963623	-15.86481
32.6970989704132	-29.2179
32.7127289772034	-39.41058
32.7283489704132	-46.09497
32.7439789772034	-49.60669
32.7595989704132	-50.90137
32.7752289772034	-51.33722
32.7908489704132	-52.42639
32.8064789772034	-55.56799
32.8221089839935	-61.85205
32.8377289772034	-71.79956
32.8533589839935	-85.06946
32.8689789772034	-100.1257
32.8846089839935	-114.3073
32.9002289772034	-124.3036
32.9158589839935	-127.1057
32.9314889907837	-121.0762
32.9471089839935	-106.5971
32.9627389907837	-85.99231
32.9783589839935	-62.78326
32.9939889907837	-40.46741
33.0096089839935	-21.47504
33.0252389907837	-6.774231
33.0408689975739	3.89801
33.0564889907837	11.39581
33.0721189975739	16.46155
33.0877389907837	19.37451
33.1033689975739	19.95947
33.1189889907837	17.87457
33.1346189975739	12.98364
33.1502487659454	5.576233
33.1658689975739	-3.648193
33.1814987659454	-13.74884
33.1971189975739	-23.81598
33.2127487659454	-33.19031
33.2283689975739	-41.56519
33.2439987659454	-48.88934
33.2596287727356	-55.30902
33.2752487659454	-60.99768
33.2908787727356	-66.14661
33.3064987659454	-70.94171
33.3221287727356	-75.64478
33.3377487659454	-80.58582
33.3533787727356	-86.17352
33.3690087795258	-92.78937
33.3846287727356	-100.6581
33.4002587795258	-109.7181
33.4158787727356	-119.5415
33.4315087795258	-129.5165
33.4471287727356	-139.1096
33.4627587795258	-148.0439
33.4783887863159	-156.479
33.4940087795258	-164.8209
33.5096387863159	-173.4385
33.5252587795258	-182.3746
33.5408887863159	-191.2906
33.5565087795258	-199.5983
33.5721387863159	-206.705
33.5877687931061	-211.9989
33.6033887863159	-214.6965
33.6190187931061	-213.631
33.6346387863159	-207.3336
33.6502687931061	-194.4392
33.6658887863159	-174.3065
33.6815187931061	-147.4518
33.6971487998962	-115.4408
33.7127687931061	-80.42493
33.7283987998962	-44.4653
33.7440187931061	-9.204926
33.7596487998962	24.2525
33.7752687931061	55.01105
33.7908987998962	82.23169
33.8065288066864	105.1472
33.8221487998962	123.2918
33.8377788066864	136.7922
33.8533987998962	146.3743
33.8690288066864	153.0951
33.8846487998962	157.983
33.9002788066864	161.7022
33.9159088134766	164.4459
33.9315288066864	166.0496
33.9471588134766	166.0705
33.9627788066864	163.9962
33.9784088134766	159.4256
33.9940288066864	152.2344
34.0096588134766	142.7089
34.0252888202667	131.5001
34.0409088134766	119.3791
34.0565388202667	106.9785
34.0721588134766	94.62655
34.0877888202667	82.37463
34.1034088134766	70.2316
34.1190388202667	58.40804
34.1346688270569	47.46437
34.1502888202667	38.15304
34.1659188270569	31.15298
34.1815388202667	26.64409
34.1971688270569	24.14888
34.2127888202667	22.59737
34.2284188270569	20.59687
34.244048833847	16.84144
34.2596688270569	10.57458
34.275298833847	1.904343
34.2909188270569	-8.093948
34.306548833847	-17.45994
34.3221688270569	-23.81507
34.337798833847	-25.04124
34.3534288406372	-19.94302
34.369048833847	-8.654816
34.3846788406372	7.390549
34.400298833847	25.92284
34.4159288406372	44.5304
34.431548833847	61.22327
34.4471788406372	74.74382
34.4628088474274	84.62373
34.4784288406372	90.93097
34.4940588474274	94.05348
34.5096788406372	94.51967
34.5253088474274	92.91386
34.5409388542175	89.86456
34.5565588474274	85.94395
34.5721888542175	81.69691
34.5878088474274	77.48975
34.6034388542175	73.59723
34.6190588474274	70.17178
34.6346888542175	67.27396
34.6503188610077	64.86099
34.6659388542175	62.85397
34.6815688610077	61.08752
34.6971888542175	59.28491
34.7128188610077	57.1344
34.7284388542175	54.21115
34.7440688610077	50.08609
34.7596988677979	44.39566
34.7753188610077	37.03748
34.7909488677979	28.21548
34.8065688610077	18.48169
34.8221988677979	8.578064
34.8378188610077	-0.7714844
34.8534488677979	-9.100861
34.869078874588	-16.32251
34.8846988677979	-22.76019
34.900328874588	-29.10928
34.9159488677979	-36.14761
34.931578874588	-44.52103
34.9471988677979	-54.33832
34.962828874588	-64.88101
34.9784588813782	-74.55014
34.994078874588	-81.13766
35.0097088813782	-82.44992
35.025328874588	-77.08621
35.0409588813782	-65.01511
35.056578874588	-47.70239
35.0722088813782	-27.7529
35.0878388881683	-8.052185
35.1034588813782	9.073425
35.1190888881683	22.3909
35.1347088813782	31.82352
35.1503388881683	38.05347
35.1659588813782	42.02823
35.1815888881683	44.57959
35.1972188949585	46.26944
35.2128388881683	47.37698
35.2284688949585	47.98792
35.2440888881683	48.06891
35.2597188949585	47.50262
35.2753388881683	46.10779
35.2909688949585	43.74271
35.3065989017487	40.44321
35.3222188949585	36.47327
35.3378489017487	32.32611
35.3534688949585	28.53796
35.3690989017487	25.47629
35.3847188949585	23.16373
35.4003489017487	21.17905
35.4159789085388	18.86661
35.4315989017487	15.49765
35.4472289085388	10.63281
35.4628489017487	4.206146
35.4784789085388	-3.364288
35.4940989017487	-11.30811
35.5097289085388	-18.80676
35.525358915329	-25.2218
35.5409789085388	-30.38858
35.556608915329	-34.61301
35.5722289085388	-38.68988
35.587858915329	-43.61633
35.6034789085388	-50.20682
35.619108915329	-58.58151
35.6347389221191	-67.86816
35.650358915329	-76.13953
35.6659889221191	-80.88266
35.681608915329	-79.80701
35.6972389221191	-71.6438
35.712858915329	-56.74567
35.7284889221191	-37.0351
35.7441189289093	-15.38635
35.7597389221191	5.357178
35.7753689289093	23.18689
35.7909889221191	37.24866
35.8066189289093	47.74225
35.8222389221191	55.4021
35.8378689289093	61.01996
35.8534989356995	65.14429
35.8691189289093	68.09686
35.8847489356995	70.10443
35.9003689289093	71.38135
35.9159989356995	72.12427
35.9316189289093	72.39539
35.9472489356995	72.10962
35.9628789424896	71.09778
35.9784989356995	69.19922
35.9941289424896	66.46912
36.0097489356995	63.19812
36.0253789424896	59.83246
36.0409989356995	56.7467
36.0566289424896	54.05676
36.0722589492798	51.52441
36.0878789424896	48.59998
36.1035089492798	44.70557
36.1191289424896	39.38123
36.1347589492798	32.54779
36.1503789424896	24.50928
36.1660089492798	15.86218
36.1816389560699	7.309021
36.1972589492798	-0.5777588
36.2128889560699	-7.509338
36.2285089492798	-13.62445
36.2441389560699	-19.40973
36.2597589492798	-25.61908
36.2753889560699	-32.93091
36.2910189628601	-41.67273
36.3066389560699	-51.46582
36.3222689628601	-61.10199
36.3378889560699	-68.65533
36.3535189628601	-72.01367
36.3691389560699	-69.59235
36.3847689628601	-60.93701
36.4003989696503	-47.07031
36.4160189628601	-30.14374
36.4316489696503	-12.79187
36.4472689628601	2.70575
36.4628989696503	15.02289
36.4785189628601	23.98676
36.4941489696503	30.21558
36.5097789764404	34.67029
36.5253989696503	38.14624
36.5410289764404	41.02136
36.5566489696503	43.31171
36.5722789764404	44.85864
36.5878989696503	45.47388
36.6035289764404	45.11566
36.6191589832306	43.87805
36.6347789764404	41.97412
36.6504089832306	39.6521
36.6660289764404	37.18994
36.6816589832306	34.86487
36.6972889900208	32.98511
36.7129089832306	31.86218
36.7285389900208	31.68317
36.7441589832306	32.40997
36.7597889900208	33.68982
36.7754089832306	34.93341
36.7910389900208	35.51923
36.8066689968109	35.11475
36.8222889900208	33.87097
36.8379189968109	32.37823
36.8535389900208	31.40759
36.8691689968109	31.53912
36.8847889900208	32.93927
36.9004189968109	35.22736
36.9160487651825	37.69995
36.9316689968109	39.54065
36.9472987651825	40.14398
36.9629189968109	39.25769
36.9785487651825	37.24829
36.9941689968109	35.14459
37.0097987651825	34.50189
37.0254287719727	37.06741
37.0410487651825	44.13022
37.0566787719727	55.89563
37.0722987651825	71.18271
37.0879287719727	87.69641
37.1035487651825	102.8148
37.1191787719727	114.5979
37.1348087787628	122.5262
37.1504287719727	127.4901
37.1660587787628	131.2251
37.1816787719727	135.3886
37.1973087787628	140.8343
37.2129287719727	147.4114
37.2285587787628	154.3441
37.244188785553	160.8158
37.2598087787628	166.3001
37.275438785553	170.6158
37.2910587787628	173.6542
37.306688785553	175.0627
37.3223087787628	174.2586
37.337938785553	170.6324
37.3535687923431	163.8706
37.369188785553	154.1772
37.3848187923431	142.2836
37.400438785553	129.067
37.4160687923431	115.2193
37.431688785553	100.974
37.4473187923431	86.1528
37.4629487991333	70.37404
37.4785687923431	53.39174
37.4941987991333	35.39024
37.5098187923431	17.01507
37.5254487991333	-0.7723694
37.5410687923431	-17.00461
37.5566987991333	-31.01283
37.5723288059235	-42.66035
37.5879487991333	-52.49017
37.6035788059235	-61.48107
37.6191987991333	-70.86741
37.6348288059235	-81.74033
37.6504487991333	-94.63593
37.6660788059235	-109.3771
37.6817088127136	-124.8931
37.6973288059235	-139.3846
37.7129588127136	-150.6369
37.7285788059235	-156.7296
37.7442088127136	-156.4639
37.7598288059235	-149.8646
37.7754588127136	-138.2037
37.7910888195038	-123.5574
37.8067088127136	-108.2573
37.8223388195038	-94.19475
37.8379588127136	-82.46616
37.8535888195038	-73.29822
37.8692088127136	-66.37793
37.8848388195038	-61.13
37.9004688262939	-57.06659
37.9160888195038	-53.90298
37.9317188262939	-51.4566
37.9473388195038	-49.61938
37.9629688262939	-48.16733
37.9785888195038	-46.87451
37.9942188262939	-45.51086
38.0098488330841	-44.00842
38.0254688262939	-42.46497
38.0410988330841	-41.19815
38.0567188262939	-40.5639
38.0723488330841	-40.78256
38.0879688262939	-41.79053
38.1035988330841	-43.24103
38.1192288398743	-44.6217
38.1348488330841	-45.5141
38.1504788398743	-45.83246
38.1660988330841	-45.88702
38.1817288398743	-46.30969
38.1973488330841	-47.7652
38.2129788398743	-50.60046
38.2286088466644	-54.74243
38.2442288398743	-59.73322
38.2598588466644	-64.94812
38.2754788398743	-69.91437
38.2911088466644	-74.47925
38.3067288398743	-78.7818
38.3223588466644	-83.15308
38.3379888534546	-87.89764
38.3536088466644	-93.19684
38.3692388534546	-99.039
38.3848588466644	-105.1893
38.4004888534546	-111.0358
38.4161088466644	-115.611
38.4317388534546	-117.6528
38.4473688602448	-116.0339
38.4629888534546	-110.2161
38.4786188602448	-100.629
38.4942388534546	-88.70074
38.5098688602448	-76.42529
38.5254888534546	-65.716
38.5411188602448	-57.66534
38.5567488670349	-52.35986
38.5723688602448	-49.021
38.5879988670349	-46.51898
38.6036188602448	-43.94788
38.6192488670349	-40.88129
38.6348688602448	-37.40436
38.6504988670349	-33.74286
38.6661288738251	-29.99762
38.6817488670349	-25.995
38.6973788738251	-21.45721
38.7129988670349	-16.23645
38.7286288738251	-10.50983
38.7442488670349	-4.836426
38.7598788738251	0.06286621
38.7755088806152	3.592346
38.7911288738251	5.652954
38.8067588806152	6.682312
38.8223788738251	7.551941
38.8380088806152	9.137573
38.8536288738251	11.99585
38.8692588806152	16.14246
38.8848888874054	21.05707
38.9005088806152	25.94653
38.9161388874054	30.00055
38.9317588806152	32.68823
38.9473888874054	33.75494
38.9630188941956	33.24341
38.9786388874054	31.23834
38.9942688941956	27.79144
39.0098888874054	22.888
39.0255188941956	16.47516
39.0411388874054	8.601135
39.0567688941956	-0.6293335
39.0723989009857	-11.01862
39.0880188941956	-22.31183
39.1036489009857	-34.14923
39.1192688941956	-45.8772
39.1348989009857	-56.48853
39.1505188941956	-64.72174
39.1661489009857	-69.27167
39.1817789077759	-69.22455
39.1973989009857	-64.4162
39.2130289077759	-55.57465
39.2286489009857	-44.16547
39.2442789077759	-31.97607
39.2598989009857	-20.60077
39.2755289077759	-11.11353
39.291158914566	-3.87854
39.3067789077759	1.258118
39.322408914566	4.757813
39.3380289077759	7.036194
39.353658914566	8.340088
39.3692789077759	8.730225
39.384908914566	8.235229
39.4005389213562	7.003113
39.416158914566	5.296936
39.4317889213562	3.479004
39.447408914566	1.727417
39.4630389213562	0.06207275
39.478658914566	-1.698669
39.4942889213562	-3.773254
39.5099189281464	-6.249512
39.5255389213562	-9.103088
39.5411689281464	-12.2796
39.5567889213562	-15.92017
39.5724189281464	-20.30176
39.5880389213562	-25.70758
39.6036689281464	-32.07867
39.6192989349365	-38.91693
39.6349189281464	-45.36603
39.6505489349365	-50.52319
39.6661689281464	-53.91162
39.6817989349365	-55.63055
39.6974189281464	-56.39056
39.7130489349365	-57.22943
39.7286789417267	-59.21631
39.7442989349365	-63.16656
39.7599289417267	-69.40338
39.7755489349365	-77.52643
39.7911789417267	-86.30719
39.8067989349365	-93.94012
39.8224289417267	-98.55273
39.8380589485168	-99.00024
39.8536789417267	-95.41583
39.8693089485168	-89.27563
39.8849289417267	-82.8819
39.9005589485168	-78.33551
39.9161789417267	-76.68195
39.9318089485168	-77.40381
39.947438955307	-78.73914
39.9630589485168	-78.47531
39.978688955307	-74.8526
39.9943089485168	-67.33145
40.009938955307	-56.65637
40.0255589485168	-44.58936
40.041188955307	-33.14819
40.0568189620972	-23.97305
40.072438955307	-17.82593
40.0880689620972	-14.52914
40.103688955307	-13.2067
40.1193189620972	-12.7309
40.134938955307	-12.2374
40.1505689620972	-11.11652
40.1661989688873	-9.018402
40.1818189620972	-5.598694
40.1974489688873	-0.4819336
40.2130689620972	6.480255
40.2286989688873	14.94412
40.2443189620972	23.92188
40.2599489688873	31.97757
40.2755789756775	37.68387
40.2911989688873	40.25404
40.3068289756775	39.78226
40.3224489688873	37.1517
40.3380789756775	33.6044
40.3536989688873	30.22369
40.3693289756775	27.53001
40.3849589824677	25.38306
40.4005789756775	23.16263
40.4162089824677	19.89467
40.4318289756775	14.69816
40.4474589824677	7.025772
40.4630789756775	-2.951111
40.4787089824677	-14.16101
40.4943389892578	-24.69148
40.5099589824677	-32.13578
40.5255889892578	-34.3299
40.5412089824677	-30.06161
40.5568389892578	-19.52204
40.5724589824677	-4.239082
40.5880889892578	13.33424
40.603718996048	30.67245
40.6193389892578	45.86385
40.634968996048	57.99558
40.6505889892578	67.10931
40.666218996048	73.8564
40.6818389892578	78.97406
40.697468996048	82.93452
40.7130990028381	85.87682
40.728718996048	87.70017
40.7443490028381	88.32355
40.759968996048	87.8548
40.7755990028381	86.55688
40.791218996048	84.79053
40.8068490028381	82.7796
40.8224787712097	80.54073
40.8380990028381	77.78059
40.8537287712097	74.1675
40.8693490028381	69.50447
40.8849787712097	63.9312
40.9005990028381	57.94705
40.9162287712097	52.18597
40.9318587779999	47.09865
40.9474787712097	42.65344
40.9631087779999	38.36876
40.9787287712097	33.43802
40.9943587779999	27.10503
41.0099787712097	19.07985
41.0256087779999	9.71991
41.04123878479	-0.1118774
41.0568587779999	-9.436127
41.07248878479	-17.55569
41.0881087779999	-24.40796
41.10373878479	-30.50552
41.1193587779999	-36.75018
41.13498878479	-44.04382
41.1506187915802	-53.00739
41.16623878479	-63.80466
41.1818687915802	-76.0509
41.19748878479	-88.77219
41.2131187915802	-100.4448
41.22873878479	-109.1422
41.2443687915802	-112.9545
41.2599987983704	-110.5194
41.2756187915802	-101.5237
41.2912487983704	-86.89331
41.3068687915802	-68.6344
41.3224987983704	-49.09116
41.3381187915802	-30.29153
41.3537487983704	-13.46454
41.3693788051605	1.118469
41.3849987983704	13.80774
41.4006288051605	25.07111
41.4162487983704	35.17099
41.4318788051605	44.04684
41.4474987983704	51.41483
41.4631288051605	57.0733
41.4787588119507	61.08273
41.4943788051605	63.66205
41.5100088119507	65.12677
41.5256288051605	65.68652
41.5412588119507	65.34729
41.5568888187408	64.06396
41.5725088119507	61.88214
41.5881388187408	59.11102
41.6037588119507	56.27759
41.6193888187408	53.92755
41.6350088119507	52.25085
41.6506388187408	50.95953
41.666268825531	49.27356
41.6818888187408	46.22864
41.697518825531	41.1463
41.7131388187408	33.90594
41.728768825531	25.021
41.7443888187408	15.45453
41.760018825531	6.215881
41.7756488323212	-2.049194
41.791268825531	-9.19281
41.8068988323212	-15.7019
41.822518825531	-22.48273
41.8381488323212	-30.47821
41.853768825531	-40.38898
41.8693988323212	-52.24768
41.8850288391113	-65.10327
41.9006488323212	-77.02527
41.9162788391113	-85.45313
41.9318988323212	-87.8866
41.9475288391113	-82.78406
41.9631488323212	-70.16046
41.9787788391113	-51.64575
41.9944088459015	-29.99158
42.0100288391113	-8.159058
42.0256588459015	11.5791
42.0412788391113	28.11804
42.0569088459015	41.49194
42.0725288391113	52.39197
42.0881588459015	61.59167
42.1037888526917	69.526
42.1194088459015	76.23151
42.1350388526917	81.50122
42.1506588459015	85.19434
42.1662888526917	87.38672
42.1819088459015	88.37341
42.1975388526917	88.55365
42.2131688594818	88.22827
42.2287888526917	87.46814
42.2444188594818	86.12512
42.2600388526917	84.00238
42.2756688594818	81.07056
42.2912888526917	77.58221
42.3069188594818	74.05463
42.322548866272	70.95123
42.3381688594818	68.42566
42.353798866272	66.09924
42.3694188594818	63.15723
42.385048866272	58.67328
42.4006688594818	52.03339
42.416298866272	43.27173
42.4319288730621	33.12952
42.447548866272	22.73315
42.4631788730621	13.14685
42.478798866272	4.934021
42.4944288730621	-2.046021
42.510048866272	-8.490784
42.5256788730621	-15.38043
42.5413088798523	-23.67865
42.5569288730621	-33.97192
42.5725588798523	-46.21539
42.5881788730621	-59.54706
42.6038088798523	-72.18011
42.6194288730621	-81.67151
42.6350588798523	-85.46863
42.6506888866425	-81.68262
42.6663088798523	-69.89276
42.6819388866425	-51.44189
42.6975588798523	-29.09418
42.7131888866425	-6.151733
42.7288088798523	14.62311
42.7444388866425	31.80109
42.7600688934326	45.34949
42.7756888866425	56.1886
42.7913188934326	65.38531
42.8069388866425	73.50562
42.8225688934326	80.44806
42.8381888866425	85.672
42.8538188934326	88.7016
42.8694489002228	89.44836
42.8850688934326	88.36548
42.9006989002228	86.16882
42.9163188934326	83.52051
42.9319489002228	80.74286
42.9475688934326	77.72241
42.9631989002228	74.14575
42.9788289070129	69.73737
42.9944489002228	64.54547
43.0100789070129	58.91504
43.0256989002228	53.40045
43.0413289070129	48.41913
43.0569489002228	44.01843
43.0725789070129	39.79413
43.0882089138031	35.00238
43.1038289070129	28.86926
43.1194589138031	20.87537
43.1350789070129	11.05005
43.1507089138031	-0.02203369
43.1663289070129	-11.34534
43.1819589138031	-21.90094
43.1975889205933	-31.01001
43.2132089138031	-38.5824
43.2288389205933	-45.11993
43.2444589138031	-51.52869
43.2600889205933	-58.81042
43.2757089138031	-67.7384
43.2913389205933	-78.57715
43.3069689273834	-90.92212
43.3225889205933	-103.5666
43.3382189273834	-114.6549
43.3538389205933	-121.9316
43.3694689273834	-123.4003
43.3850889205933	-117.9778
43.4007189273834	-106.0116
43.4163489341736	-89.26825
43.4319689273834	-70.39069
43.4475989341736	-52.02899
43.4632189273834	-35.93805
43.4788489341736	-22.60162
43.4944689273834	-11.36884
43.5100989341736	-1.05835
43.5257289409637	9.369995
43.5413489341736	20.2821
43.5569789409637	31.28302
43.5725989341736	41.45703
43.5882289409637	49.74335
43.6038489341736	55.42493
43.6194789409637	58.29919
43.6351089477539	58.7381
43.6507289409637	57.44257
43.6663589477539	55.22083
43.6819789409637	52.73187
43.6976089477539	50.46039
43.7132289409637	48.76855
43.7288589477539	47.94995
43.7444889545441	48.28705
43.7601089477539	49.89001
43.7757389545441	52.55505
43.7913589477539	55.66724
43.8069889545441	58.38373
43.8226189613342	59.83746
43.8382389545441	59.49561
43.8538689613342	57.33362
43.8694889545441	53.75049
43.8851189613342	49.33368
43.9007389545441	44.55756
43.9163689613342	39.60962
43.9319989681244	34.34351
43.9476189613342	28.39069
43.9632489681244	21.28748
43.9788689613342	12.60846
43.9944989681244	1.9776
44.0101189613342	-10.80475
44.0257489681244	-25.6438
44.0413789749146	-41.89716
44.0569989681244	-58.20923
44.0726289749146	-72.50256
44.0882489681244	-82.41071
44.1038789749146	-85.91327
44.1194989681244	-82.06036
44.1351289749146	-71.34802
44.1663789749146	-37.53528
44.1820089817047	-19.45441
44.1976289749146	-3.171204
44.2132589817047	10.57782
44.2288789749146	21.82574
44.2445089817047	30.97595
44.2601389884949	38.37329
44.2757589817047	44.20721
44.2913889884949	48.49609
44.3070089817047	51.3573
44.3226389884949	53.1217
44.3382589817047	54.27307
44.3538889884949	55.31702
44.369518995285	56.52911
44.3851389884949	57.80011
44.400768995285	58.68823
44.4163889884949	58.63391
44.432018995285	57.29279
44.4476389884949	54.77399
44.463268995285	51.73096
44.4788990020752	49.12921
44.494518995285	47.87915
44.5101490020752	48.46759
44.525768995285	50.75885
44.5413990020752	54.09991
44.557018995285	57.61194
44.5726490020752	60.50836
44.5882787704468	62.37207
44.6038990020752	63.11615
44.6195287704468	62.82617
44.6351490020752	61.55841
44.6507787704468	59.12372
44.6663990020752	55.0899
44.6820287704468	48.95642
44.6976587772369	40.43732
44.7132787704468	29.75604
44.7289087772369	17.91553
44.7445287704468	6.612427
44.7601587772369	-2.069031
44.7757787704468	-6.223389
44.7914087772369	-4.728821
44.8070387840271	2.2901
44.8226587772369	13.50122
44.8382887840271	26.77423
44.8539087772369	39.8457
44.8695387840271	51.03827
44.8851587772369	59.58557
44.9007887840271	65.61884
44.9164187908173	69.77161
44.9320387840271	72.68146
44.9476687908173	74.625
44.9632887840271	75.46362
44.9789187908173	74.87793
44.9945387840271	72.68335
45.0101687908173	69.13556
45.0257987976074	64.84222
45.0414187908173	60.53754
45.0570487976074	56.73486
45.0726687908173	53.42371
45.0882987976074	50.17499
45.1039187908173	46.41193
45.1195487976074	41.82642
45.1351788043976	36.56769
45.1507987976074	31.22742
45.1664288043976	26.39667
45.1820487976074	22.32672
45.1976788043976	18.73096
45.2132987976074	14.83838
45.2289288043976	9.789063
45.2445588111877	3.050568
45.2601788043976	-5.315552
45.2758088111877	-14.66797
45.2914288043976	-24.00433
45.3070588111877	-32.42487
45.3226788043976	-39.4473
45.3383088111877	-45.10715
45.3539388179779	-49.9241
45.3695588111877	-54.65289
45.3851888179779	-60.08328
45.4008088111877	-66.81284
45.4164388179779	-75.03186
45.4320588111877	-84.35361
45.4476888179779	-93.72192
45.4633188247681	-101.5974
45.4789388179779	-106.2811
45.4945688247681	-106.5164
45.5101888179779	-101.9314
45.5258188247681	-93.31717
45.5414388179779	-82.34279
45.5570688247681	-70.968
45.5726988315582	-60.74072
45.5883188247681	-52.39882
45.6039488315582	-45.83174
45.6195688247681	-40.52914
45.6351988315582	-36.08649
45.6508188247681	-32.4221
45.6664488315582	-29.83807
45.6820788383484	-28.7617
45.6976988315582	-29.44084
45.7133288383484	-31.79483
45.7289488315582	-35.39491
45.7445788383484	-39.6387
45.7601988315582	-43.93076
45.7758288383484	-47.90919
45.7914588451385	-51.35353
45.8070788383484	-54.14071
45.8227088451385	-56.17354
45.8383288383484	-57.31599
45.8539588451385	-57.48037
45.8695788383484	-56.72384
45.8852088451385	-55.33118
45.9008388519287	-53.77572
45.9164588451385	-52.70708
45.9320888519287	-52.68758
45.9477088451385	-54.03313
45.9633388519287	-56.65398
45.9789588451385	-60.03915
45.9945888519287	-63.45705
46.0102188587189	-66.13228
46.0258388519287	-67.5583
46.0414688587189	-67.69815
46.0570888519287	-67.02558
46.0727188587189	-66.41555
46.0883388519287	-66.87357
46.1039688587189	-69.20195
46.119598865509	-73.6842
46.1352188587189	-79.96087
46.150848865509	-86.96635
46.1664688587189	-93.05007
46.182098865509	-96.31915
46.1977188587189	-95.13643
46.213348865509	-88.60545
46.2289788722992	-76.91649
46.244598865509	-61.35993
46.2602288722992	-43.92588
46.275848865509	-26.75191
46.2914788722992	-11.48088
46.307098865509	1.15979
46.3227288722992	11.3448
46.3383588790894	19.81123
46.3539788722992	27.3602
46.3696088790894	34.46228
46.3852288722992	41.11031
46.4008588790894	46.96705
46.4164888858795	51.63072
46.4321088790894	54.86621
46.4477388858795	56.73679
46.4633588790894	57.5427
46.4789888858795	57.69421
46.4946088790894	57.51804
46.5102388858795	57.1994
46.5258688926697	56.74327
46.5414888858795	56.10083
46.5571188926697	55.2511
46.5727388858795	54.20154
46.5883688926697	52.97878
46.6039888858795	51.5974
46.6196188926697	49.99741
46.6352488994598	48.07311
46.6508688926697	45.71259
46.6664988994598	42.76884
46.6821188926697	39.15546
46.6977488994598	34.83442
46.7133688926697	29.80082
46.7289988994598	24.17806
46.74462890625	18.19634
46.7602488994598	12.20164
46.77587890625	6.571992
46.7914988994598	1.548993
46.80712890625	-2.886455
46.8227488994598	-6.9904
46.83837890625	-11.19595
46.8540089130402	-16.01479
46.86962890625	-21.79778
46.8852589130402	-28.62828
46.90087890625	-36.13707
46.9165089130402	-43.39146
46.93212890625	-49.06458
46.9477589130402	-51.63365
46.9633889198303	-49.83481
46.9790089130402	-43.16315
46.9946389198303	-32.12218
47.0102589130402	-18.18707
47.0258889198303	-3.375662
47.0415089130402	10.42472
47.0571389198303	22.05328
47.0727689266205	31.3024
47.0883889198303	38.80398
47.1040189266205	45.53143
47.1196389198303	52.28154
47.1352689266205	59.24934
47.1508889198303	66.05109
47.1665189266205	71.90945
47.1821489334106	76.04643
47.1977689266205	78.09083
47.2133989334106	78.10941
47.2290189266205	76.5678
47.2446489334106	74.1284
47.2602689266205	71.42272
47.2758989334106	68.87727
47.2915289402008	66.71158
47.3071489334106	65.00798
47.3227789402008	63.72444
47.3383989334106	62.82411
47.3540289402008	62.17683
47.3696489334106	61.57309
47.3852789402008	60.72851
47.400908946991	59.3434
47.4165289402008	57.2281
47.432158946991	54.29219
47.4477789402008	50.62837
47.463408946991	46.39272
47.4790289402008	41.80762
47.494658946991	37.02788
47.5102889537811	32.19971
47.525908946991	27.41681
47.5415389537811	22.761
47.557158946991	18.27522
47.5727889537811	13.86392
47.588408946991	9.274597
47.6040389537811	4.046402
47.6196689605713	-2.369492
47.6352889537811	-10.54898
47.6509189605713	-20.83672
47.6665389537811	-33.16956
47.6821689605713	-46.90665
47.6977889537811	-60.72031
47.7134189605713	-72.85782
47.7290489673615	-81.41217
47.7446689605713	-84.92795
47.7602989673615	-82.88327
47.7759189605713	-75.92548
47.7915489673615	-65.72137
47.8071689605713	-54.41943
47.8227989673615	-44.02454
47.8384289741516	-35.74835
47.8540489673615	-29.86865
47.8696789741516	-25.85785
47.8852989673615	-22.88223
47.9009289741516	-20.25601
47.9165489673615	-17.67264
47.9321789741516	-15.22028
47.9478089809418	-13.19928
47.9634289741516	-11.95303
47.9790589809418	-11.59174
47.9946789741516	-12.07889
48.0103089809418	-13.17584
48.0259289741516	-14.61337
48.0415589809418	-16.12057
48.0571889877319	-17.47391
48.0728089809418	-18.52588
48.0884389877319	-19.24969
48.1040589809418	-19.74625
48.1196889877319	-20.08832
48.1353089809418	-20.37299
48.1509389877319	-20.61133
48.1665689945221	-20.76978
48.1821889877319	-20.84067
48.1978189945221	-20.87717
48.2134389877319	-20.99326
48.2290689945221	-21.34311
48.2446889877319	-22.02298
48.2603189945221	-22.97543
48.2759490013123	-24.08609
48.2915689945221	-25.1452
48.3071990013123	-25.98999
48.3228189945221	-26.52313
48.3384490013123	-26.72357
48.3540689945221	-26.69281
48.3696990013123	-26.55939
48.3853287696838	-26.55688
48.4009490013123	-26.96863
48.4165787696838	-28.17462
48.4321990013123	-30.45404
48.4478287696838	-33.83868
48.4634490013123	-37.91119
48.4790787696838	-41.64063
48.494708776474	-43.57544
48.5103287696838	-42.23798
48.525958776474	-36.70081
48.5415787696838	-27.08972
48.557208776474	-14.73175
48.5728287696838	-1.744446
48.588458776474	9.667297
48.6040887832642	17.88782
48.619708776474	22.42114
48.6353387832642	23.82776
48.650958776474	23.24512
48.6665887832642	21.84058
48.6822187900543	20.42157
48.6978387832642	19.18311
48.7134687900543	17.95331
48.7290887832642	16.42444
48.7447187900543	14.40833
48.7603387832642	11.98108
48.7759687900543	9.473999
48.7915987968445	7.306641
48.8072187900543	5.713318
48.8228487968445	4.675964
48.8384687900543	3.895813
48.8540987968445	2.978638
48.8697187900543	1.689087
48.8853487968445	0.1459961
48.9009788036346	-1.218018
48.9165987968445	-1.860962
48.9322288036346	-1.39679
48.9478487968445	0.1138916
48.9634788036346	2.132813
48.9790987968445	3.855042
48.9947288036346	4.553894
49.0103588104248	3.822021
49.0259788036346	1.780151
49.0416088104248	-1.074524
49.0572288036346	-4.119324
49.0728588104248	-6.937073
49.0884788036346	-9.483093
49.1041088104248	-12.09155
49.119738817215	-15.34961
49.1353588104248	-19.83789
49.150988817215	-26.02185
49.1666088104248	-34.09003
49.182238817215	-43.92798
49.1978588104248	-54.9776
49.213488817215	-66.2337
49.2291188240051	-76.22223
49.244738817215	-83.31494
49.2603688240051	-86.15356
49.275988817215	-84.16101
49.2916188240051	-77.86273
49.307238817215	-68.76483
49.3228688240051	-58.88177
49.3384988307953	-49.95428
49.3541188240051	-42.82477
49.3697488307953	-37.23505
49.3853688240051	-32.1557
49.4009988307953	-26.41241
49.4166188240051	-19.33325
49.4322488307953	-11.10785
49.4478788375854	-2.633118
49.4634988307953	4.954834
49.4791288375854	10.81934
49.4947488307953	14.80078
49.5103788375854	17.4458
49.5259988307953	19.64771
49.5416288375854	22.21075
49.5572588443756	25.55713
49.5728788375854	29.58917
49.5885088443756	33.98737
49.6041288375854	38.45306
49.6197588443756	42.97357
49.6353788375854	47.74286
49.6510088443756	52.91803
49.6666388511658	58.24115
49.6822588443756	62.85321
49.6978888511658	65.54388
49.7135088443756	65.10657
49.7291388511658	61.02649
49.7447588443756	53.6524
49.7603888511658	44.14038
49.7760188579559	33.93762
49.7916388511658	24.17645
49.8072688579559	15.23877
49.8228888511658	6.66156
49.8385188579559	-2.575562
49.8541388511658	-13.68756
49.8697688579559	-27.57733
49.8853988647461	-44.58502
49.9010188579559	-64.2854
49.9166488647461	-85.38928
49.9322688579559	-105.8492
49.9478988647461	-123.2074
49.9635188579559	-135.1125
49.9791488647461	-139.9967
49.9947788715363	-137.5948
50.0103988647461	-129.0914
50.0260288715363	-116.77
50.0416488647461	-103.276
50.0572788715363	-90.75806
50.0728988647461	-80.29462
50.0885288715363	-71.80316
50.1041588783264	-64.5036
50.1197788715363	-57.54395
50.1354088783264	-50.5752
50.1510288715363	-43.87164
50.1666588783264	-38.08295
50.1822788715363	-33.7804
50.1979088783264	-31.0343
50.2135388851166	-29.4397
50.2291588783264	-28.34851
50.2447888851166	-27.2616
50.2604088783264	-26.11993
50.2760388851166	-25.29846
50.2916588783264	-25.29218
50.3072888851166	-26.41058
50.3229188919067	-28.53931
50.3385388851166	-31.15125
50.3541688919067	-33.65198
50.3697888851166	-35.71295
50.3854188919067	-37.44232
50.4010388851166	-39.45959
50.4166688919067	-42.57294
50.4322988986969	-47.4183
50.4479188919067	-54.2106
50.4635488986969	-62.52289
50.4791688919067	-71.47226
50.4947988986969	-80.01199
50.5104188919067	-87.3093
50.5260488986969	-92.95544
50.5416789054871	-97.05273
50.5572988986969	-100.1172
50.5729289054871	-102.856
50.5885488986969	-106.0278
50.6041789054871	-110.2018
50.6197988986969	-115.6153
50.6354289054871	-121.8415
50.6510589122772	-127.5652
50.6666789054871	-130.5227
50.6823089122772	-127.8869
50.6979289054871	-117.1644
50.7135589122772	-97.07498
50.7291789054871	-68.27271
50.7448089122772	-33.29825
50.7604389190674	4.12384
50.7760589122772	40.19296
50.7916889190674	71.96547
50.8073089122772	97.84988
50.8229389190674	117.4642
50.8385689258575	131.206
50.8541889190674	139.9553
50.8698189258575	144.8519
50.8854389190674	147.3763
50.9010689258575	149.1411
50.9166889190674	151.533
50.9323189258575	155.1193
50.9479489326477	159.3105
50.9635689258575	162.5571
50.9791989326477	163.0881
50.9948189258575	159.9065
51.0104489326477	153.3896
51.0260689258575	145.2035
51.0416989326477	137.5203
51.0573289394379	132.0999
51.0729489326477	129.626
51.0885789394379	129.8101
51.1041989326477	131.9619
51.1198289394379	135.5946
51.1354489326477	140.7336
51.1510789394379	147.7163
51.166708946228	156.77
51.1823289394379	167.8814
51.197958946228	180.93
51.2135789394379	195.9813
51.229208946228	213.3203
51.2448289394379	233.0887
51.260458946228	254.7177
51.2760889530182	276.7653
51.291708946228	297.3319
51.3073389530182	314.9024
51.322958946228	329.0296
51.3385889530182	340.1669
51.354208946228	348.8226
51.3698389530182	354.494
51.3854689598083	355.2947
51.4010889530182	348.601
51.4167189598083	332.5063
51.4323389530182	307.1025
51.4479689598083	274.8301
51.4635889530182	239.7423
51.4792189598083	205.9169
51.4948489665985	176.128
51.5104689598083	151.3847
51.5260989665985	131.3272
51.5417189598083	115.1564
51.5573489665985	102.3684
51.5729689598083	92.953
51.5885989665985	86.99936
51.6042289733887	84.28214
51.6198489665985	83.98938
51.6354789733887	84.86877
51.6510989665985	85.64612
51.6667289733887	85.4566
51.6823489665985	84.03955
51.6979789733887	81.67865
51.7136089801788	78.97052
51.7292289733887	76.41565
51.7448589801788	74.30115
51.7604789733887	72.55841
51.7761089801788	70.90924
51.7917289733887	68.94745
51.8073589801788	66.29352
51.822988986969	62.70721
51.8386089801788	58.06451
51.854238986969	52.38715
51.8698589801788	45.81494
51.885488986969	38.62
51.9011089801788	31.17358
51.916738986969	23.77527
51.9323689937592	16.5542
51.947988986969	9.309204
51.9636189937592	1.546997
51.979238986969	-7.399658
51.9948689937592	-18.06201
52.010488986969	-30.55371
52.0261189937592	-44.4801
52.0417490005493	-59.01392
52.0573689937592	-73.40027
52.0729990005493	-87.37903
52.0886189937592	-101.5458
52.1042490005493	-117.2538
52.1198689937592	-136.2822
52.1354990005493	-160.0392
52.1511287689209	-188.9919
52.1667490005493	-222.4125
52.1823787689209	-258.743
52.1979990005493	-296.2765
52.2136287689209	-333.8514
52.2292490005493	-371.3568
52.2448787689209	-409.5776
52.2605087757111	-449.8319
52.2761287689209	-493.6322
52.2917587757111	-542.4452
52.3073787689209	-597.3087
52.3230087757111	-657.868
52.3386287689209	-721.3038
52.3542587757111	-781.652
52.3698887825012	-830.4421
52.3855087757111	-858.9086
52.4011387825012	-860.9596
52.4167587757111	-835.5055
52.4323887825012	-786.9314
52.4480087757111	-723.2684
52.4636387825012	-653.056
52.4792687892914	-582.7101
52.4948887825012	-515.4756
52.5105187892914	-452.1514
52.5261387825012	-392.7374
52.5417687892914	-337.6975
52.5573887825012	-287.8937
52.5730187892914	-243.8295
52.5886487960815	-204.7855
52.6042687892914	-168.6705
52.6198987960815	-132.8418
52.6355187892914	-95.34155
52.6511487960815	-55.79285
52.6667687892914	-15.69165
52.6823987960815	21.94702
52.6980288028717	53.83484
52.7136487960815	77.60461
52.7292788028717	92.71765
52.7448987960815	100.7008
52.7605288028717	104.4479
52.7761487960815	106.981
52.7917788028717	110.1868
52.8074088096619	114.1033
52.8230288028717	117.0901
52.8386588096619	116.9542
52.8542788028717	112.1477
52.8699088096619	102.7993
52.8855288028717	90.94385
52.9011588096619	79.94037
52.916788816452	73.43945
52.9324088096619	74.2312
52.948038816452	83.38531
52.9636588096619	99.99707
52.979288816452	121.585
52.9949088096619	144.8241
53.010538816452	166.5831
53.0261688232422	184.8156
53.041788816452	198.8141
53.0574188232422	209.05
53.073038816452	216.6325
53.0886688232422	222.5632
53.104288816452	227.3506
53.1199188232422	230.9837
53.1355488300323	233.1364
53.1511688232422	233.5157
53.1667988300323	232.114
53.1824188232422	229.1848
53.1980488300323	225.1549
53.2136688232422	220.4696
53.2292988300323	215.3505
53.2449288368225	209.8319
53.2605488300323	203.8254
53.2761788368225	197.2859
53.2917988300323	190.3409
53.3074288368225	183.3445
53.3230488300323	176.7196
53.3386788368225	170.7993
53.3543088436127	165.668
53.3699288368225	161.0136
53.3855588436127	156.2055
53.4011788368225	150.5314
53.4168088436127	143.4497
53.4324288368225	134.8561
53.4480588436127	125.1745
53.4636888504028	115.2474
53.4793088436127	105.9965
53.4949388504028	98.1329
53.5105588436127	91.799
53.5261888504028	86.58704
53.541818857193	81.66269
53.5574388504028	76.02937
53.573068857193	68.7747
53.5886888504028	59.34309
53.604318857193	47.68272
53.6199388504028	34.45371
53.635568857193	21.19592
53.6511988639832	10.16907
53.666818857193	3.942604
53.6824488639832	4.609245
53.698068857193	12.9854
53.7136988639832	28.19053
53.729318857193	47.81847
53.7449488639832	68.65685
53.7605788707733	87.71192
53.7761988639832	103.028
53.7918288707733	113.9869
53.8074488639832	121.0484
53.8230788707733	125.103
53.8386988639832	126.7808
53.8543288707733	126.2348
53.8699588775635	123.2431
53.8855788707733	117.5067
53.9012088775635	109.0634
53.9168288707733	98.41814
53.9324588775635	86.42871
53.9480788707733	73.98895
53.9637088775635	61.77737
53.9793388843536	50.03931
53.9949588775635	38.88399
54.0105888843536	28.53966
54.0262088775635	19.68237
54.0418388843536	13.34421
54.0574588775635	10.53001
54.0730888843536	11.57719
54.0887188911438	15.70427
54.1043388843536	20.98495
54.1199688911438	24.74358
54.1355888843536	24.40071
54.1512188911438	18.26988
54.1668388843536	6.04866
54.1824688911438	-11.23801
54.198098897934	-31.6221
54.2137188911438	-52.8517
54.229348897934	-73.00734
54.2449688911438	-90.8212
54.260598897934	-105.8126
54.2762188911438	-118.1609
54.291848897934	-128.4355
54.3074789047241	-137.1579
54.323098897934	-144.4016
54.3387289047241	-149.5116
54.354348897934	-151.0739
54.3699789047241	-147.3254
54.385598897934	-136.9073
54.4012289047241	-119.5947
54.4168589115143	-96.72186
54.4324789047241	-71.04279
54.4481089115143	-45.91666
54.4637289047241	-24.28308
54.4793589115143	-7.788269
54.4949789047241	3.530334
54.5106089115143	10.84653
54.5262389183044	15.74713
54.5418589115143	19.4295
54.5574889183044	22.24524
54.5731089115143	23.73111
54.5887389183044	23.13635
54.6043589115143	19.92892
54.6199889183044	14.22073
54.6356189250946	6.80368
54.6512389183044	-1.066437
54.6668689250946	-7.944183
54.6824889183044	-12.59634
54.6981189250946	-14.16064
54.7137389183044	-12.25748
54.7293689250946	-6.996277
54.7449989318848	0.9450684
54.7606189250946	10.41803
54.7762489318848	19.82104
54.7918689250946	27.30249
54.8074989318848	31.24307
54.8231189250946	30.62396
54.8387489318848	25.3504
54.8543789386749	16.2739
54.8699989318848	4.926758
54.8856289386749	-7.06601
54.9012489318848	-18.5097
54.9168789386749	-29.01526
54.9324989318848	-39.02274
54.9481289386749	-49.43774
54.9637589454651	-61.1691
54.9793789386749	-74.41733
54.9950089454651	-88.32339
55.0106289386749	-100.8098
55.0262589454651	-109.0186
55.0418789386749	-110.15
55.0575089454651	-102.4639
55.0731389522552	-86.04147
55.0887589454651	-62.93033
55.1043889522552	-36.61646
55.1200089454651	-10.88156
55.1356389522552	11.31015
55.1512589454651	28.47903
55.1668889522552	40.76547
55.1825189590454	49.30637
55.1981389522552	55.4819
55.2137689590454	60.28577
55.2293889522552	64.121
55.2450189590454	66.83221
55.2606389522552	68.10287
55.2762689590454	67.71805
55.2918989658356	65.65262
55.3075189590454	62.1568
55.3231489658356	57.64581
55.3387689590454	52.66336
55.3543989658356	47.78207
55.3700189590454	43.5806
55.3856489658356	40.54434
55.4012789726257	38.95575
55.4168989658356	38.72351
55.4325289726257	39.25504
55.4481489658356	39.55383
55.4637789726257	38.3934
55.4793989658356	34.75568
55.4950289726257	28.21707
55.5106589794159	19.05017
55.5262789726257	8.202637
55.5419089794159	-3.094116
55.5575289726257	-13.81775
55.5731589794159	-23.51785
55.5887789726257	-32.41138
55.6044089794159	-41.27417
55.6200389862061	-51.15106
55.6356589794159	-62.83817
55.6512889862061	-76.53491
55.6669089794159	-91.38409
55.6825389862061	-105.3839
55.6981589794159	-115.6929
55.7137889862061	-119.3807
55.7294189929962	-114.4292
55.7450389862061	-100.5685
55.7606689929962	-79.65891
55.7762889862061	-55.08508
55.7919189929962	-30.76086
55.8075489997864	-9.846588
55.8231689929962	6.038116
55.8387989997864	16.96457
55.8544189929962	24.21616
55.8700489997864	29.4408
55.8856689929962	34.05234
55.9012989997864	38.78909
55.916928768158	43.84332
55.9325489997864	49.00696
55.948178768158	53.86209
55.9637989997864	57.97656
55.979428768158	60.92514
55.9950489997864	62.47678
56.010678768158	62.6019
56.0263087749481	61.59781
56.041928768158	60.08109
56.0575587749481	58.89645
56.073178768158	58.84891
56.0888087749481	60.52808
56.104428768158	64.05887
56.1200587749481	69.15048
56.1356887817383	75.25519
56.1513087749481	81.92249
56.1669387817383	89.00479
56.1825587749481	96.76453
56.1981887817383	105.693
56.2138087749481	116.1542
56.2294387817383	128.0866
56.2450687885284	140.7928
56.2606887817383	152.9426
56.2763187885284	162.7253
56.2919387817383	168.2256
56.3075687885284	167.8055
56.3231887817383	160.7115
56.3388187885284	147.5811
56.3544487953186	130.7429
56.3700687885284	113.9354
56.3856987953186	101.3331
56.4013187885284	96.15396
56.4169487953186	99.40369
56.4325687885284	109.4091
56.4481987953186	122.3632
56.4638288021088	133.7968
56.4794487953186	140.2019
56.4950788021088	140.1678
56.5106987953186	134.466
56.5263288021088	125.2857
56.5419487953186	115.0352
56.5575788021088	105.2982
56.5732088088989	96.50537
56.5888288021088	88.17426
56.6044588088989	79.54022
56.6200788021088	70.14862
56.6357088088989	60.04688
56.6513288021088	49.79468
56.6669588088989	40.09241
56.6825888156891	31.47919
56.6982088088989	24.10547
56.7138388156891	17.75549
56.7294588088989	11.94745
56.7450888156891	6.07666
56.7607088088989	-0.40271
56.7763388156891	-7.989624
56.7919688224792	-17.01898
56.8075888156891	-27.63525
56.8232188224792	-39.74725
56.8388388156891	-53.07538
56.8544688224792	-67.23352
56.8700888156891	-81.86279
56.8857188224792	-96.82593
56.9013488292694	-112.2442
56.9169688224792	-128.5367
56.9325988292694	-146.3019
56.9482188224792	-166.092
56.9638488292694	-188.038
56.9794688224792	-211.383
56.9950988292694	-234.0752
57.0107288360596	-252.8569
57.0263488292694	-263.9188
57.0419788360596	-264.0559
57.0575988292694	-251.9819
57.0732288360596	-229.0219
57.0888488292694	-199.0165
57.1044788360596	-167.1498
57.1201088428497	-138.3088
57.1357288360596	-115.7048
57.1513588428497	-100.2686
57.1669788360596	-90.83301
57.1826088428497	-85.13416
57.1982288360596	-80.90576
57.2138588428497	-76.56543
57.2294888496399	-71.44763
57.2451088428497	-65.61584
57.2607388496399	-59.38904
57.2763588428497	-52.99438
57.2919888496399	-46.41516
57.3076088428497	-39.40222
57.3232388496399	-31.63245
57.3388688564301	-23.11218
57.3544888496399	-14.23682
57.3701188564301	-5.941406
57.3857388496399	0.4482422
57.4013688564301	3.522461
57.4169888496399	2.13501
57.4326188564301	-4.2229
57.4482488632202	-15.20398
57.4638688564301	-29.61609
57.4794988632202	-45.66479
57.4951188564301	-61.25317
57.5107488632202	-74.48181
57.5263688564301	-84.00623
57.5419988632202	-89.28967
57.5576288700104	-90.76294
57.5732488632202	-89.6969
57.5888788700104	-87.84802
57.6044988632202	-86.98315
57.6201288700104	-88.1134
57.6357488632202	-90.88647
57.6513788700104	-93.46362
57.6670088768005	-92.97522
57.6826288700104	-86.52075
57.6982588768005	-72.44104
57.7138788700104	-51.11255
57.7295088768005	-24.99463
57.7451288700104	2.250732
57.7607588768005	27.01184
57.7763888835907	46.94543
57.7920088768005	61.47278
57.8076388835907	71.48938
57.8232588768005	78.56018
57.8388888835907	83.97522
57.8545088768005	88.28699
57.8701388835907	91.3335
57.8857688903809	92.65173
57.9013888835907	92.06958
57.9170188903809	89.94531
57.9326388835907	87.17542
57.9482688903809	84.8833
57.963898897171	84.06677
57.9795188903809	85.21277
57.995148897171	88.24414
58.0107688903809	92.49988
58.026398897171	96.85144
58.0420188903809	100.0605
58.057648897171	100.9
58.0732789039612	98.47449
58.088898897171	92.33948
58.1045289039612	82.59546
58.120148897171	69.80908
58.1357789039612	54.91309
58.151398897171	38.95129
58.1670289039612	22.86377
58.1826589107513	7.38208
58.1982789039612	-7.083374
58.2139089107513	-20.52942
58.2295289039612	-33.3905
58.2451589107513	-46.26941
58.2607789039612	-59.67578
58.2764089107513	-73.43982
58.2920389175415	-86.35413
58.3076589107513	-96.22607
58.3232889175415	-100.4934
58.3389089107513	-97.24683
58.3545389175415	-86.14673
58.3701589107513	-68.797
58.3857889175415	-48.27893
58.4014189243317	-28.10901
58.4170389175415	-11.04321
58.4326689243317	1.704346
58.4482889175415	10.41455
58.4639189243317	16.23596
58.4795389175415	20.32983
58.4951689243317	23.30603
58.5107989311218	25.18726
58.5264189243317	25.63342
58.5420489311218	24.45703
58.5576689243317	21.74756
58.5732989311218	17.94995
58.5889189243317	13.61853
58.6045489311218	9.251831
58.620178937912	5.181885
58.6357989311218	1.61499
58.651428937912	-1.262939
58.6670489311218	-3.331665
58.682678937912	-4.6521
58.6982989311218	-5.55542
58.713928937912	-6.63208
58.7295589447021	-8.602783
58.745178937912	-12.02161
58.7608089447021	-16.96423
58.776428937912	-23.04346
58.7920589447021	-29.45837
58.807678937912	-35.35742
58.8233089447021	-40.12854
58.8389389514923	-43.64746
58.8545589447021	-46.27563
58.8701889514923	-48.76709
58.8858089447021	-52.03772
58.9014389514923	-56.82214
58.9170589447021	-63.38562
58.9326889514923	-71.15625
58.9483189582825	-78.55237
58.9639389514923	-83.12744
58.9795689582825	-82.10938
58.9951889514923	-73.42737
59.0108189582825	-56.52344
59.0264389514923	-32.91211
59.0420689582825	-5.78125
59.0576989650726	20.93323
59.0733189582825	43.94275
59.0889489650726	61.52661
59.1045689582825	73.81726
59.1201989650726	82.24023
59.1358189582825	88.53271
59.1514489650726	93.8501
59.1670789718628	98.40027
59.1826989650726	101.7258
59.1983289718628	103.1704
59.2139489650726	102.4534
59.2295789718628	99.78601
59.2451989650726	95.65283
59.2608289718628	90.49109
59.276458978653	84.37463
59.2920789718628	77.13342
59.307708978653	68.53711
59.3233289718628	58.62268
59.338958978653	47.80444
59.3545789718628	36.78931
59.370208978653	26.18323
59.3858389854431	16.18665
59.401458978653	6.48645
59.4170889854431	-3.598145
59.432708978653	-14.6394
59.4483389854431	-26.68469
59.463958978653	-39.14307
59.4795889854431	-50.80212
59.4952189922333	-60.31226
59.5108389854431	-66.70471
59.5264689922333	-69.80469
59.5420889854431	-70.36011
59.5577189922333	-69.88354
59.5733389854431	-70.23621
59.5889689922333	-73.15381
59.6045989990234	-79.56384
59.6202189922333	-89.21985
59.6358489990234	-100.4299
59.6514689922333	-110.3119
59.6670989990234	-115.5111
59.6827189922333	-113.2484
59.6983489990234	-102.3546
59.713978767395	-83.80164
59.7295989990234	-60.50342
59.745228767395	-36.25183
59.7608489990234	-14.48193
59.776478767395	2.782593
59.7920989990234	15.21631
59.807728767395	23.87073
59.8233587741852	30.24377
59.838978767395	35.50684
59.8546087741852	40.12976
59.870228767395	43.98779
59.8858587741852	46.80786
59.901478767395	48.52686
59.9171087741852	49.3949
59.9327387809753	49.78894
59.9483587741852	50.00269
59.9639887809753	49.95471
59.9796087741852	49.13977
59.9952387809753	46.9624
60.0108587741852	43.0116
60.0264887809753	37.43726
60.0421187877655	30.82666
60.0577387809753	24.08728
60.0733687877655	17.89355
60.0889887809753	12.33459
60.1046187877655	6.88562
60.1202387809753	0.5897217
60.1358687877655	-7.363159
60.1514987945557	-17.24109
60.1671187877655	-28.51428
60.1827487945557	-40.15808
60.1983687877655	-50.97034
60.2139987945557	-60.16101
60.2296187877655	-67.58984
60.2452487945557	-73.77039
60.2608788013458	-79.6416
60.2764987945557	-86.18164
60.2921288013458	-94.19177
60.3077487945557	-104.0787
60.3233788013458	-115.7821
60.3389987945557	-128.4802
60.3546288013458	-140.4921
60.370258808136	-149.3278
60.3858788013458	-152.2391
60.401508808136	-147.0938
60.4171288013458	-133.2985
60.432758808136	-112.3235
60.4483788013458	-87.42957
60.464008808136	-62.69519
60.4796388149261	-41.73462
60.495258808136	-26.59839
60.5108888149261	-17.43835
60.526508808136	-12.9231
60.5421388149261	-11.14465
60.557758808136	-10.47339
60.5733888149261	-10.06274
60.5890188217163	-9.807251
60.6046388149261	-9.989502
60.6202688217163	-10.86096
60.6358888149261	-12.43176
60.6515188217163	-14.50769
60.6671488285065	-16.76501
60.6827688217163	-18.93982
60.6983988285065	-20.85742
60.7140188217163	-22.43555
60.7296488285065	-23.56262
60.7452688217163	-24.13318
60.7608988285065	-24.02209
60.7765288352966	-23.32581
60.7921488285065	-22.41797
60.8077788352966	-21.84814
60.8233988285065	-22.23938
60.8390288352966	-23.97668
60.8546488285065	-27.11951
60.8702788352966	-31.29309
60.8859088420868	-35.88245
60.9015288352966	-40.24597
60.9171588420868	-44.04041
60.9327788352966	-47.43182
60.9484088420868	-51.07306
60.9640288352966	-55.86133
60.9796588420868	-62.39954
60.995288848877	-70.44489
61.0109088420868	-78.39459
61.026538848877	-83.37219
61.0421588420868	-81.87146
61.057788848877	-70.95044
61.0734088420868	-49.43347
61.089038848877	-18.67468
61.1046688556671	17.58203
61.120288848877	54.27148
61.1359188556671	86.53253
61.151538848877	111.0753
61.1671688556671	126.7922
61.182788848877	134.5967
61.1984188556671	136.5592
61.2140488624573	134.9323
61.2296688556671	131.4974
61.2452988624573	127.354
61.2609188556671	123.1519
61.2765488624573	119.3458
61.2921688556671	116.3573
61.3077988624573	114.5258
61.3234288692474	113.9471
61.3390488624573	114.4104
61.3546788692474	115.3992
61.3702988624573	116.3115
61.3859288692474	116.6432
61.4015488624573	116.1313
61.4171788692474	114.7009
61.4328088760376	112.3102
61.4484288692474	108.7338
61.4640588760376	103.5463
61.4796788692474	96.31091
61.4953088760376	86.79584
61.5109288692474	75.29144
61.5265588760376	62.63068
61.5421888828278	50.07971
61.5578088760376	38.82159
61.5734388828278	29.64288
61.5890588760376	22.53314
61.6046888828278	16.66943
61.6203088760376	10.60504
61.6359388828278	2.716309
61.6515688896179	-8.135437
61.6671888828278	-21.99976
61.6828188896179	-37.40906
61.6984388828278	-51.42059
61.7140688896179	-60.25745
61.7296888828278	-60.48224
61.7453188896179	-50.2016
61.7609488964081	-29.95874
61.7765688896179	-2.799316
61.7921988964081	26.66064
61.8078188896179	53.638
61.8234488964081	74.58954
61.8390688896179	88.07538
61.8546988964081	94.6806
61.8703289031982	96.26764
61.8859488964081	94.95844
61.9015789031982	92.29169
61.9171988964081	88.97424
61.9328289031982	85.04187
61.9484488964081	80.27478
61.9640789031982	74.52466
61.9797089099884	67.82343
61.9953289031982	60.34387
62.0109589099884	52.18311
62.0265789031982	43.34247
62.0422089099884	33.89197
62.0578289031982	24.06604
62.0734589099884	14.37091
62.0890889167786	5.378967
62.1047089099884	-2.558655
62.1203389167786	-9.635803
62.1359589099884	-16.62933
62.1515889167786	-24.63629
62.1672089099884	-34.56537
62.1828389167786	-46.62274
62.1984689235687	-60.14142
62.2140889167786	-73.81586
62.2297189235687	-86.23566
62.2453389167786	-96.48285
62.2609689235687	-104.5375
62.2765889167786	-111.296
62.2922189235687	-118.3011
62.3078489303589	-127.1992
62.3234689235687	-139.0825
62.3390989303589	-153.8782
62.3547189235687	-170.0089
62.3703489303589	-184.4238
62.3859689235687	-193.1871
62.4015989303589	-192.6646
62.417228937149	-180.7815
62.4328489303589	-158.0279
62.448478937149	-127.5223
62.4640989303589	-94.07764
62.479728937149	-62.67542
62.4953489303589	-36.81702
62.510978937149	-17.6803
62.5266089439392	-4.246582
62.542228937149	5.645264
62.5578589439392	14.18152
62.573478937149	22.69348
62.5891089439392	31.49109
62.604728937149	40.25397
62.6203589439392	48.58337
62.6359889507294	56.27948
62.6516089439392	63.46686
62.6672389507294	70.23584
62.6828589439392	76.4079
62.6984889507294	81.48254
62.7141089439392	84.77673
62.7297389507294	85.87836
62.7453689575195	84.94189
62.7609889507294	82.74133
62.7766189575195	80.36035
62.7922389507294	78.66522
62.8078689575195	77.77588
62.8234989643097	76.93231
62.8391189575195	74.80005
62.8547489643097	70.11804
62.8703689575195	62.34247
62.8859989643097	52.01364
62.9016189575195	40.55148
62.9172489643097	29.64871
62.9328789710999	20.52945
62.9484989643097	13.4606
62.9641289710999	7.795349
62.9797489643097	2.271362
62.9953789710999	-4.450378
63.0109989643097	-13.29218
63.0266289710999	-24.34515
63.04225897789	-36.63501
63.0578789710999	-48.04443
63.07350897789	-55.55911
63.0891289710999	-56.00854
63.10475897789	-47.02686
63.1203789710999	-28.0799
63.13600897789	-1.01181
63.1516389846802	30.31522
63.16725897789	61.1582
63.1828889846802	87.41458
63.19850897789	106.8219
63.2141389846802	119.2285
63.22975897789	126.0159
63.2453889846802	128.9295
63.2610189914703	129.1451
63.2766389846802	126.8859
63.2922689914703	121.7593
63.3078889846802	113.4818
63.3235189914703	102.4122
63.3391389846802	89.63336
63.3547689914703	76.54172
63.3703989982605	64.25156
63.3860189914703	53.0831
63.4016489982605	42.52112
63.4172689914703	31.65378
63.4328989982605	19.72522
63.4485189914703	6.586853
63.4641489982605	-7.177216
63.4797787666321	-20.60892
63.4953989982605	-32.87936
63.5110287666321	-43.72079
63.5266489982605	-53.57828
63.5422787666321	-63.39575
63.5578989982605	-74.17584
63.5735287666321	-86.36649
63.5891587734222	-99.69388
63.6047787666321	-113.1382
63.6204087734222	-125.3643
63.6360287666321	-135.2603
63.6516587734222	-142.3546
63.6672787666321	-147.0269
63.6829087734222	-150.3733
63.6985387802124	-153.8592
63.7141587734222	-158.9105
63.7297887802124	-166.5831
63.7454087734222	-177.2035
63.7610387802124	-189.9743
63.7766587734222	-202.8361
63.7922887802124	-212.4854
63.8079187870026	-215.043
63.8235387802124	-207.1718
63.8391687870026	-187.3065
63.8547887802124	-156.545
63.8704187870026	-118.538
63.8860387802124	-78.40091
63.9016687870026	-41.09488
63.9172987937927	-9.89679
63.9329187870026	14.25125
63.9485487937927	32.3324
63.9641687870026	46.25229
63.9797987937927	57.57352
63.9954187870026	66.94556
64.0110487937927	74.09995
64.0266788005829	78.46985
64.0422987937927	79.9173
64.0579288005829	79.0311
64.0735487937927	77.07855
64.0891788005829	75.39316
64.1047987937927	74.89871
64.1204288005829	75.71295
64.136058807373	77.12766
64.1516788005829	78.07053
64.167308807373	77.66956
64.1829288005829	75.72122
64.198558807373	72.81915
64.2141788005829	70.0379
64.229808807373	68.38742
64.2454388141632	68.24393
64.261058807373	69.18817
64.2766888141632	70.159
64.292308807373	69.99384
64.3079388141632	68.02635
64.323558807373	64.35831
64.3391888141632	59.84024
64.3548188209534	55.61214
64.3704388141632	52.60411
64.3860688209534	51.16418
64.4016888141632	50.91476
64.4173188209534	50.97858
64.4329388141632	50.26588
64.4485688209534	47.77998
64.4641988277435	42.87431
64.4798188209534	35.48357
64.4954488277435	26.40559
64.5110688209534	17.58556
64.5266988277435	12.02974
64.5423188209534	13.16615
64.5579488277435	23.85916
64.5735788345337	45.16673
64.5891988277435	75.64026
64.6048288345337	111.5103
64.6204488277435	147.8867
64.6360788345337	180.4051
64.6516988277435	206.677
64.6673288345337	226.7682
64.6829588413239	242.4998
64.6985788345337	256.1408
64.7142088413239	268.9753
64.7298288345337	280.7045
64.7454588413239	289.6076
64.7610788345337	293.5226
64.7767088413239	290.9122
64.792338848114	281.5666
64.8079588413239	266.7562
64.823588848114	248.708
64.8392088413239	229.8691
64.854838848114	212.0222
64.8704588413239	195.8495
64.886088848114	180.9148
64.9017188549042	166.154
64.917338848114	150.5122
64.9329688549042	133.5836
64.948588848114	115.7661
64.9642188549042	97.83823
64.979838848114	80.33762
64.9954688549042	62.85242
65.0110988616943	43.91107
65.0267188549042	21.50012
65.0423488616943	-5.919617
65.0579688549042	-38.46893
65.0735988616943	-74.58759
65.0892188549042	-111.4529
65.1048488616943	-146.1565
65.1204788684845	-176.9547
65.1360988616943	-203.9016
65.1517288684845	-228.9119
65.1673488616943	-254.9702
65.1829788684845	-285.145
65.1985988616943	-321.4196
65.2142288684845	-363.77
65.2298588752747	-409.4858
65.2454788684845	-453.2043
65.2611088752747	-487.7769
65.2767288684845	-506.0094
65.2923588752747	-502.856
65.3079788684845	-477.3023
65.3236088752747	-432.9922
65.3392388820648	-377.3469
65.3548588752747	-319.2755
65.3704888820648	-266.5405
65.3861088752747	-223.896
65.4017388820648	-192.4238
65.417368888855	-170.4271
65.4329888820648	-154.9396
65.448618888855	-143.2419
65.4642388820648	-133.6874
65.479868888855	-125.8491
65.4954888820648	-119.9496
65.511118888855	-116.3263
65.5267488956451	-115.0242
65.542368888855	-115.7039
65.5579988956451	-117.853
65.573618888855	-121.1112
65.5892488956451	-125.4064
65.604868888855	-130.7786
65.6204988956451	-137.2552
65.6361289024353	-144.4569
65.6517488956451	-151.4515
65.6673789024353	-156.8191
65.6829988956451	-158.942
65.6986289024353	-156.4888
65.7142488956451	-148.7864
65.7298789024353	-136.1438
65.7455089092255	-119.7027
65.7611289024353	-101.0676
65.7767589092255	-81.76898
65.7923789024353	-62.71542
65.8080089092255	-44.16724
65.8236289024353	-25.96869
65.8392589092255	-8.160278
65.8548889160156	8.637848
65.8705089092255	23.09543
65.8861389160156	33.48984
65.9017589092255	38.31555
65.9173889160156	36.76389
65.9330089092255	29.14337
65.9486389160156	16.97745
65.9642689228058	2.969193
65.9798889160156	-9.359818
65.9955189228058	-16.19014
66.0111389160156	-14.39059
66.0267689228058	-2.444138
66.0423889160156	18.90123
66.0580189228058	46.76178
66.0736489295959	77.0265
66.0892689228058	105.628
66.1048989295959	129.9218
66.1205189228058	149.1818
66.1361489295959	164.2976
66.1517689228058	176.856
66.1673989295959	188.039
66.1830289363861	198.1223
66.1986489295959	206.4631
66.2142789363861	212.1717
66.2298989295959	214.687
66.2455289363861	214.2044
66.2611489295959	211.6012
66.2767789363861	208.0094
66.2924089431763	204.2737
66.3080289363861	200.6037
66.3236589431763	196.5417
66.3392789363861	191.248
66.3549089431763	184.0119
66.3705289363861	174.6369
66.3861589431763	163.6534
66.4017889499664	152.0856
66.4174089431763	140.9817
66.4330389499664	130.9087
66.4486589431763	121.6733
66.4642889499664	112.4429
66.4799089431763	102.1494
66.4955389499664	90.13911
66.5111689567566	76.55293
66.5267889499664	62.34103
66.5424189567566	48.91397
66.5580389499664	37.48929
66.5736689567566	28.57755
66.5892889499664	21.84164
66.6049189567566	16.23276
66.6205489635468	10.40347
66.6361689567566	3.142151
66.6517989635468	-6.337921
66.6674189567566	-18.27213
66.6830489635468	-32.0824
66.6986689567566	-46.27551
66.7142989635468	-58.45212
66.7299289703369	-65.61935
66.7455489635468	-65.01819
66.7611789703369	-55.11139
66.7767989635468	-36.39529
66.7924289703369	-11.48685
66.8080489635468	15.55664
66.8236789703369	40.61575
66.8393089771271	60.78012
66.8549289703369	74.98773
66.8705589771271	83.92865
66.8861789703369	89.20245
66.9018089771271	92.36612
66.9174289703369	94.39676
66.9330589771271	95.64096
66.9486889839172	96.13654
66.9643089771271	96.10742
66.9799389839172	96.04099
66.9955589771271	96.431
67.0111889839172	97.38074
67.0268089771271	98.20151
67.0424389839172	97.4408
67.0580689907074	93.40054
67.0736889839172	84.83817
67.0893189907074	71.65073
67.1049389839172	55.05896
67.1205689907074	37.21283
67.1361889839172	20.46207
67.1518189907074	6.674072
67.1674489974976	-3.320587
67.1830689907074	-9.627533
67.1986989974976	-12.89848
67.2143189907074	-13.83842
67.2299489974976	-12.78896
67.2455689907074	-9.576035
67.2611989974976	-3.741409
67.2768287658691	5.045944
67.2924489974976	16.50244
67.3080787658691	29.21274
67.3236989974976	40.50424
67.3393287658691	46.89053
67.3549489974976	44.93193
67.3705787658691	32.35677
67.3862087726593	9.055344
67.4018287658691	-22.60838
67.4174587726593	-58.05203
67.4330787658691	-91.50406
67.4487087726593	-117.2737
67.4643287658691	-130.9622
67.4799587726593	-130.3369
67.4955887794495	-115.6701
67.5112087726593	-89.54091
67.5268387794495	-56.13776
67.5424587726593	-20.28105
67.5580887794495	13.62769
67.5737087726593	42.39145
67.5893387794495	64.46215
67.6049687862396	79.87275
67.6205887794495	89.68124
67.6362187862396	95.31539
67.6518387794495	97.98662
67.6674687862396	98.43706
67.6830987930298	96.9158
67.6987187862396	93.42168
67.7143487930298	87.92493
67.7299687862396	80.47729
67.7455987930298	71.34004
67.7612187862396	60.87587
67.7768487930298	49.55407
67.7924787998199	37.98233
67.8080987930298	26.88802
67.8237287998199	16.98774
67.8393487930298	8.708752
67.8549787998199	1.903099
67.8705987930298	-4.364031
67.8862287998199	-11.58702
67.9018588066101	-21.45213
67.9174787998199	-35.12278
67.9331088066101	-52.78492
67.9487287998199	-73.48597
67.9643588066101	-95.50172
67.9799787998199	-116.981
67.9956088066101	-136.6248
68.0112388134003	-154.0466
68.0268588066101	-169.7531
68.0424888134003	-184.8392
68.0581088066101	-200.2996
68.0737388134003	-216.48
68.0893588066101	-232.4462
68.1049888134003	-245.8087
68.1206188201904	-253.0331
68.1362388134003	-250.3161
68.1518688201904	-234.8411
68.1674888134003	-205.8878
68.1831188201904	-165.5383
68.1987388134003	-118.2742
68.2143688201904	-69.92485
68.2299988269806	-26.04187
68.2456188201904	9.487555
68.2612488269806	35.16274
68.2768688201904	51.65405
68.2924988269806	60.90044
68.3081188201904	65.04697
68.3237488269806	65.61222
68.3393788337708	63.33963
68.3549988269806	58.45618
68.3706288337708	51.13203
68.3862488269806	41.85183
68.4018788337708	31.51339
68.4174988269806	21.09509
68.4331288337708	11.24071
68.4487588405609	2.088997
68.4643788337708	-6.733248
68.4800088405609	-15.811
68.4956288337708	-25.60148
68.5112588405609	-36.33162
68.5268788337708	-48.0378
68.5425088405609	-60.70921
68.5581388473511	-74.28142
68.5737588405609	-88.61037
68.5893888473511	-103.2047
68.6050088405609	-117.2022
68.6206388473511	-129.469
68.6362588405609	-138.9738
68.6518888473511	-145.1604
68.6675188541412	-148.2138
68.6831388473511	-149.1552
68.6987688541412	-149.6275
68.7143888473511	-151.4587
68.7300188541412	-155.8939
68.7456388473511	-162.8939
68.7612688541412	-170.6064
68.7768988609314	-175.5025
68.7925188541412	-173.2787
68.8081488609314	-160.3584
68.8237688541412	-135.3722
68.8393988609314	-99.94322
68.8550188541412	-58.33344
68.8706488609314	-15.97693
68.8862788677216	22.21341
68.9018988609314	53.3848
68.9175288677216	77.09515
68.9331488609314	94.79922
68.9487788677216	108.6628
68.9643988609314	120.4829
68.9800288677216	131.1332
68.9956588745117	140.6395
69.0112788677216	148.6584
69.0269088745117	154.9417
69.0425288677216	159.559
69.0581588745117	162.7866
69.0737788677216	164.8119
69.0894088745117	165.5534
69.1050388813019	164.6616
69.1206588745117	161.9034
69.1362888813019	157.3955
69.1519088745117	151.7978
69.1675388813019	146.1484
69.1831588745117	141.4003
69.1987888813019	137.8347
69.214418888092	134.8358
69.2300388813019	131.0933
69.245668888092	125.1302
69.2612888813019	116.0999
69.276918888092	104.1568
69.2925388813019	90.4469
69.308168888092	76.57709
69.3237988948822	63.90253
69.339418888092	52.94788
69.3550488948822	43.185
69.370668888092	33.29388
69.3862988948822	21.66663
69.401918888092	7.063416
69.4175488948822	-10.77637
69.4331789016724	-30.64624
69.4487988948822	-49.86578
69.4644289016724	-64.78796
69.4800488948822	-71.8053
69.4956789016724	-68.60852
69.5112988948822	-55.15216
69.5269289016724	-33.78003
69.5425589084625	-8.46228
69.5581789016724	16.58972
69.5738089084625	38.32611
69.5894289016724	55.62183
69.6050589084625	69.06415
69.6206789016724	80.21442
69.6363089084625	90.60126
69.6519389152527	101.0031
69.6675589084625	111.3137
69.6831889152527	120.8528
69.6988089084625	128.7397
69.7144389152527	134.223
69.7300589084625	136.8395
69.7456889152527	136.3885
69.7613189220428	132.921
69.7769389152527	126.7612
69.7925689220428	118.5626
69.8081889152527	109.2933
69.8238189220428	100.1789
69.8394389152527	92.50885
69.8550689220428	87.32819
69.870698928833	85.08813
69.8863189220428	85.44153
69.901948928833	87.27448
69.9175689220428	88.9978
69.933198928833	89.02954
69.9488289356232	86.29462
69.964448928833	80.45471
69.9800789356232	71.90027
69.995698928833	61.46417
70.0113289356232	49.9108
70.026948928833	37.50571
70.0425789356232	23.83557
70.0582089424133	7.898254
70.0738289356232	-11.67499
70.0894589424133	-36.02151
70.1050789356232	-65.43219
70.1207089424133	-98.82755
70.1363289356232	-133.4234
70.1519589424133	-165.0584
70.1675889492035	-189.075
70.1832089424133	-201.7075
70.1988389492035	-201.2095
70.2144589424133	-188.5612
70.2300889492035	-167.0489
70.2457089424133	-141.0853
70.2613389492035	-114.7602
70.2769689559937	-90.7283
70.2925889492035	-69.90945
70.3082189559937	-51.87445
70.3238389492035	-35.84439
70.3394689559937	-21.28186
70.3550889492035	-8.370514
70.3707189559937	2.254883
70.3863489627838	9.779877
70.4019689559937	13.59387
70.4175989627838	13.46506
70.4332189559937	9.592957
70.4488489627838	2.64621
70.4644689559937	-6.32077
70.4800989627838	-15.91821
70.495728969574	-24.71378
70.5113489627838	-31.41684
70.526978969574	-35.25974
70.5425989627838	-36.18832
70.558228969574	-34.8956
70.5738489627838	-32.62476
70.589478969574	-30.81857
70.6051089763641	-30.73618
70.620728969574	-33.04514
70.6363589763641	-37.75204
70.651978969574	-44.14975
70.6676089763641	-51.11371
70.683228969574	-57.5032
70.6988589763641	-62.56973
70.7144889831543	-66.23962
70.7301089763641	-69.27213
70.7457389831543	-73.14365
70.7613589763641	-79.49429
70.7769889831543	-89.38403
70.7926089763641	-102.4214
70.8082389831543	-116.2136
70.8238689899445	-126.7321
70.8394889831543	-129.4259
70.8551189899445	-120.8956
70.8707389831543	-100.3269
70.8863689899445	-70.10083
70.9019889831543	-34.96075
70.9176189899445	-0.3521118
70.9332489967346	29.47876
70.9488689899445	52.5997
70.9644989967346	69.31168
70.9801189899445	81.28424
70.9957489967346	90.16898
71.0113689899445	96.88913
71.0269989967346	101.5489
71.0426287651062	103.9504
71.0582489967346	104.1364
71.0738787651062	102.6191
71.0894989967346	100.1051
71.1051287651062	97.03024
71.1207489967346	93.26816
71.1363787651062	88.11536
71.1520087718964	80.78522
71.1676287651062	70.86374
71.1832587718964	58.74301
71.1988787651062	45.50204
71.2145087718964	32.52939
71.2301287651062	20.90726
71.2457587718964	10.89499
71.2613887786865	1.783112
71.2770087718964	-7.833252
71.2926387786865	-19.39441
71.3082587718964	-33.68683
71.3238887786865	-50.37115
71.3395087718964	-68.05905
71.3551387786865	-84.80554
71.3707687854767	-98.92212
71.3863887786865	-109.6922
71.4020187854767	-117.6353
71.4176387786865	-124.4232
71.4332687854767	-132.1897
71.4488887786865	-142.9093
71.4645187854767	-157.7054
71.4801487922668	-176.3333
71.4957687854767	-196.9071
71.5113987922668	-215.9342
71.5270187854767	-228.8206
71.5426487922668	-230.9294
71.5582687854767	-219.1244
71.5738987922668	-192.9708
71.589528799057	-155.2773
71.6051487922668	-111.3312
71.620778799057	-67.20599
71.6363987922668	-27.80804
71.652028799057	4.546448
71.6676487922668	30.22986
71.683278799057	51.37744
71.6989088058472	70.27515
71.714528799057	88.1817
71.7301588058472	104.8842
71.745778799057	119.2635
71.7614088058472	130.1373
71.777028799057	137.0383
71.7926588058472	140.3669
71.8082888126373	141.0227
71.8239088058472	139.8164
71.8395388126373	136.9731
71.8551588058472	132.244
71.8707888126373	125.245
71.8864088058472	115.8911
71.9020388126373	104.7762
71.9176688194275	93.04144
71.9332888126373	81.95526
71.9489188194275	72.39636
71.9645388126373	64.56952
71.9801688194275	57.97906
71.9957888126373	51.76501
72.0114188194275	45.05969
72.0270488262177	37.27698
72.0426688194275	28.33179
72.0582988262177	18.59564
72.0739188194275	8.819214
72.0895488262177	-0.1221924
72.1051688194275	-7.460876
72.1207988262177	-12.85284
72.1364288330078	-16.54797
72.1520488262177	-19.35645
72.1676788330078	-22.48749
72.1832988262177	-27.15912
72.1989288330078	-34.24017
72.2145488262177	-43.75128
72.2301788330078	-54.49109
72.245808839798	-63.79431
72.2614288330078	-67.95538
72.277058839798	-63.1499
72.2926788330078	-46.7652
72.308308839798	-18.60773
72.3239288330078	18.67499
72.339558839798	60.29047
72.3551888465881	100.9009
72.370808839798	136.4597
72.3864388465881	165.3757
72.402058839798	188.4832
72.4176888465881	208.0187
72.433308839798	226.2267
72.4489388465881	244.1921
72.4645688533783	261.6065
72.4801888465881	277.1909
72.4958188533783	289.5514
72.5114388465881	297.7791
72.5270688533783	301.6951
72.5426988601685	301.6099
72.5583188533783	297.9703
72.5739488601685	291.0431
72.5895688533783	280.7704
72.6051988601685	267.0236
72.6208188533783	249.8428
72.6364488601685	229.6988
72.6520788669586	207.4598
72.6676988601685	184.0474
72.6833288669586	160.0376
72.6989488601685	135.3268
72.7145788669586	109.0931
72.7301988601685	80.09186
72.7458288669586	47.13867
72.7614588737488	9.612366
72.7770788669586	-32.35394
72.7927088737488	-77.901
72.8083288669586	-125.5468
72.8239588737488	-173.2733
72.8395788669586	-218.5392
72.8552088737488	-258.3892
72.8708388805389	-289.892
72.8864588737488	-310.8263
72.9020888805389	-320.4667
72.9177088737488	-320.0031
72.9333388805389	-312.4225
72.9489588737488	-301.498
72.9645888805389	-290.3764
72.9802188873291	-280.2674
72.9958388805389	-270.0117
73.0114688873291	-256.7663
73.0270888805389	-237.5712
