onset	BVP
1.26140213012695	-98.26129
1.27702212333679	-90.90717
1.29265213012695	-82.49231
1.30827212333679	-73.64813
1.32390213012695	-64.98181
1.33952212333679	-56.8006
1.35515213012695	-49.08289
1.37078213691711	-41.65118
1.38640213012695	-34.39026
1.40203213691711	-27.39996
1.41765213012695	-20.95917
1.43328213691711	-15.39221
1.44890213012695	-10.87726
1.46453213691711	-7.296326
1.48016214370728	-4.19165
1.49578213691711	-0.7350464
1.51141214370728	4.053711
1.52703213691711	11.00128
1.54266214370728	20.38977
1.55828213691711	31.73035
1.57391214370728	43.8006
1.58954215049744	54.96484
1.60516214370728	63.71899
1.62079215049744	69.16235
1.63641214370728	71.26233
1.65204215049744	70.75714
1.66766214370728	68.85559
1.68329215049744	66.7959
1.6989221572876	65.47083
1.71454215049744	65.19922
1.7301721572876	65.7287
1.74579215049744	66.40173
1.7614221572876	66.46704
1.77704215049744	65.45917
1.7926721572876	63.42041
1.80830192565918	60.90887
1.8239221572876	58.73468
1.83955192565918	57.57147
1.8551721572876	57.62537
1.87080192565918	58.53015
1.8864221572876	59.53088
1.90205192565918	59.77228
1.91768193244934	58.56989
1.93330192565918	55.59167
1.94893193244934	50.8764
1.96455192565918	44.81354
1.98018193244934	38.09924
1.99580192565918	31.66461
2.01143193244934	26.48053
2.0270619392395	23.31207
2.04268193244934	22.40753
2.0583119392395	23.34399
2.07393193244934	25.15234
2.0895619392395	26.64069
2.10518193244934	26.86298
2.1208119392395	25.4494
2.13644194602966	22.62549
2.1520619392395	18.9621
2.16769194602966	15.00671
2.1833119392395	11.06519
2.19894194602966	7.165344
2.2145619392395	3.254395
2.23019194602966	-0.5742798
2.24582195281982	-4.014526
2.26144194602966	-6.673828
2.27707195281982	-8.314697
2.29269194602966	-9.053711
2.32394194602966	-9.847229
2.33957195281982	-10.92871
2.35520195960999	-12.56171
2.37082195281982	-14.28442
2.38645195960999	-15.45905
2.40207195281982	-15.62292
2.41770195960999	-14.69598
2.43332195281982	-12.96527
2.44895195960999	-10.77893
2.46458196640015	-8.249023
2.48020195960999	-5.226379
2.49583196640015	-1.557129
2.51145195960999	2.473206
2.52708196640015	5.918213
2.54270195960999	7.474854
2.55833196640015	6.213562
2.57396197319031	2.392334
2.58958196640015	-2.260193
2.60521197319031	-5.147522
2.62083196640015	-4.031067
2.63646197319031	1.750366
2.65208196640015	10.80139
2.66771197319031	20.28302
2.68334197998047	27.25043
2.69896197319031	29.97437
2.71459197998047	28.53748
2.73021197319031	24.46173
2.74584197998047	19.68427
2.76146197319031	15.57104
2.77709197998047	12.51038
2.79272198677063	10.18677
2.80834197998047	8.181091
2.82397198677063	6.400269
2.83959197998047	5.140808
2.85522198677063	4.788269
2.87084197998047	5.488342
2.88647198677063	6.899536
2.90210199356079	8.310913
2.91772198677063	8.935181
2.93335199356079	8.173218
2.94897198677063	5.845581
2.96460199356079	2.197754
2.98022198677063	-2.194336
2.99585199356079	-6.710693
3.01148200035095	-10.82635
3.02710199356079	-14.31165
3.04273200035095	-17.20905
3.05835199356079	-19.72644
3.07398200035095	-22.07037
3.08961200714111	-24.27332
3.10523200035095	-26.14612
3.12086200714111	-27.27795
3.13648200035095	-27.23395
3.15211200714111	-25.73535
3.16773200035095	-22.81171
3.18336200714111	-18.83185
3.19899201393127	-14.38617
3.21461200714111	-10.09668
3.23024201393127	-6.397217
3.24586200714111	-3.440857
3.26149201393127	-1.07373
3.27711200714111	0.9352417
3.29274201393127	2.753906
3.30837202072144	4.352478
3.32399201393127	5.5047
3.33962202072144	5.969177
3.35524201393127	5.634644
3.37087202072144	4.604614
3.38649201393127	3.124451
3.40212202072144	1.500916
3.4177520275116	-0.03924561
3.43337202072144	-1.372986
3.4490020275116	-2.465942
3.46462202072144	-3.365295
3.4802520275116	-4.139709
3.49587202072144	-4.888306
3.5115020275116	-5.71344
3.52713203430176	-6.676025
3.5427520275116	-7.75354
3.55838203430176	-8.856873
3.5740020275116	-9.84137
3.58963203430176	-10.55786
3.6052520275116	-10.95844
3.62088203430176	-11.08203
3.63651204109192	-11.07159
3.65213203430176	-11.14465
3.66776204109192	-11.52222
3.68338203430176	-12.38037
3.69901204109192	-13.73413
3.71463203430176	-15.42554
3.73026204109192	-17.05774
3.74589204788208	-18.12177
3.76151204109192	-18.13373
3.77714204788208	-16.84656
3.79276204109192	-14.33264
3.80839204788208	-10.97241
3.82401204109192	-7.242249
3.83964204788208	-3.550964
3.85527205467224	-0.156311
3.87089204788208	2.865906
3.88652205467224	5.480225
3.90214204788208	7.622864
3.91777205467224	9.212891
3.93339204788208	10.21271
3.94902205467224	10.72339
3.9646520614624	10.9693
3.98027205467224	11.22546
3.9959020614624	11.65588
4.01152205467224	12.27002
4.0271520614624	12.88943
4.04277205467224	13.26605
4.0584020614624	13.18826
4.07403206825256	12.57745
4.0896520614624	11.47168
4.10528206825256	10.01636
4.1209020614624	8.405762
4.13653206825256	6.834473
4.1521520614624	5.498199
4.16778206825256	4.563995
4.18341207504272	4.05191
4.19903206825256	3.851807
4.21466207504272	3.697601
4.23028206825256	3.259094
4.24591207504272	2.283051
4.26153206825256	0.7084656
4.27716207504272	-1.348511
4.29279208183289	-3.690735
4.30841207504272	-6.22403
4.32404208183289	-9.005463
4.33966207504272	-12.21188
4.35529208183289	-15.96106
4.37091207504272	-20.14182
4.38654208183289	-24.33679
4.40217208862305	-27.90878
4.41779208183289	-30.20871
4.43342208862305	-30.81601
4.44904208183289	-29.65323
4.46467208862305	-26.96164
4.48029208183289	-23.16766
4.49592208862305	-18.7243
4.51155209541321	-13.9808
4.52717208862305	-9.206726
4.54280209541321	-4.605408
4.55842208862305	-0.3945313
4.57405209541321	3.213837
4.58967208862305	5.995544
4.60530209541321	7.788177
4.62093210220337	8.537659
4.65218210220337	7.474915
4.66780209541321	6.281189
4.68343210220337	5.132202
4.69905209541321	4.285248
4.71468210220337	3.792694
4.73031210899353	3.512604
4.74593210220337	3.206085
4.76156210899353	2.654175
4.77718210220337	1.812836
4.79281210899353	0.8038635
4.80843210220337	-0.159729
4.82406210899353	-0.9235535
4.83969211578369	-1.516022
4.85531210899353	-2.084076
4.87094211578369	-2.842194
4.88656210899353	-3.87381
4.90219211578369	-5.082367
4.91781210899353	-6.209015
4.93344211578369	-6.960175
4.94907212257385	-7.172821
4.96469211578369	-6.861511
4.98032212257385	-6.23233
4.99594211578369	-5.608063
5.01157212257385	-5.300385
5.02719211578369	-5.532166
5.04282212257385	-6.387573
5.05845212936401	-7.784363
5.07407212257385	-9.511169
5.08970212936401	-11.2919
5.10532212257385	-12.83386
5.12095212936401	-13.86935
5.13657212257385	-14.23215
5.15220212936401	-13.84399
5.16783213615417	-12.73083
5.18345212936401	-11.03247
5.19908213615417	-8.89502
5.21470212936401	-6.491211
5.23033213615417	-3.95163
5.24595212936401	-1.352539
5.26158213615417	1.258453
5.27721214294434	3.818268
5.29283213615417	6.207855
5.30846214294434	8.275482
5.32408213615417	9.85672
5.33971214294434	10.88226
5.3553421497345	11.38055
5.37096214294434	11.47198
5.3865921497345	11.29681
5.40221214294434	10.95316
5.4178421497345	10.50595
5.43346214294434	10.03503
5.4490921497345	9.673615
5.46472215652466	9.575012
5.4803421497345	9.859924
5.49597215652466	10.51669
5.5115921497345	11.35104
5.52722215652466	12.06799
5.5428421497345	12.38461
5.55847215652466	12.14462
5.57410192489624	11.40323
5.58972215652466	10.34732
5.60535192489624	9.182831
5.62097215652466	8.048523
5.63660192489624	6.959137
5.65222215652466	5.856506
5.66785192489624	4.697815
5.6834819316864	3.484985
5.69910192489624	2.290985
5.7147319316864	1.195831
5.73035192489624	0.2374268
5.7459819316864	-0.5895691
5.76160192489624	-1.334717
5.7772319316864	-2.080536
5.79286193847656	-2.913879
5.8084819316864	-3.909973
5.82411193847656	-5.141815
5.8397319316864	-6.651917
5.85536193847656	-8.42395
5.8709819316864	-10.30984
5.88661193847656	-12.05524
5.90224194526672	-13.27924
5.91786193847656	-13.61258
5.93349194526672	-12.80148
5.94911193847656	-10.81918
5.96474194526672	-7.916931
5.98036193847656	-4.593994
5.99599194526672	-1.439453
6.01162195205688	1.012421
6.02724194526672	2.493958
6.04287195205688	3.044464
6.05849194526672	2.959625
6.07412195205688	2.671112
6.08974194526672	2.516968
6.10537195205688	2.651031
6.12100195884705	3.015778
6.13662195205688	3.450562
6.15225195884705	3.78949
6.16787195205688	3.994965
6.18350195884705	4.098602
6.19912195205688	4.162292
6.21475195884705	4.176697
6.23038196563721	4.053955
6.24600195884705	3.676697
6.26163196563721	3.008942
6.27725195884705	2.148651
6.29288196563721	1.315155
6.30850195884705	0.7650757
6.32413196563721	0.6385193
6.33976197242737	0.8809814
6.35538196563721	1.278992
6.37101197242737	1.581146
6.38663196563721	1.597839
6.40226197242737	1.312897
6.41788196563721	0.8301086
6.43351197242737	0.2793274
6.44914197921753	-0.2762756
6.46476197242737	-0.8770752
6.48039197921753	-1.619934
6.49601197242737	-2.555481
6.51164197921753	-3.674896
6.52726197242737	-4.887115
6.54289197921753	-6.130096
6.55852198600769	-7.427307
6.57414197921753	-8.882416
6.58977198600769	-10.61746
6.60539197921753	-12.62158
6.62102198600769	-14.68835
6.63664197921753	-16.4393
6.65227198600769	-17.4389
6.66790199279785	-17.38739
6.68352198600769	-16.21005
6.69915199279785	-14.09027
6.71477198600769	-11.39047
6.73040199279785	-8.486816
6.74602198600769	-5.675507
6.76165199279785	-3.099762
6.77728199958801	-0.8008728
6.79290199279785	1.212555
6.80853199958801	2.888672
6.82415199279785	4.13324
6.83978199958801	4.848328
6.85540199279785	5.02121
6.87103199958801	4.764832
6.88666200637817	4.271973
6.91791200637817	3.508575
6.93353199958801	3.503693
6.94916200637817	3.76181
6.96478199958801	4.179962
6.98041200637817	4.593658
6.99604201316833	4.857727
7.01166200637817	4.861786
7.02729201316833	4.570221
7.04291200637817	4.048218
7.05854201316833	3.42804
7.07416200637817	2.838684
7.08979201316833	2.332214
7.1054220199585	1.856445
7.12104201316833	1.264496
7.1366720199585	0.4126892
7.15229201316833	-0.7578125
7.1679220199585	-2.171539
7.18354201316833	-3.653656
7.1991720199585	-5.036591
7.21480202674866	-6.218964
7.2304220199585	-7.208527
7.24605202674866	-8.099152
7.2616720199585	-9.017517
7.27730202674866	-10.04352
7.2929220199585	-11.19543
7.30855202674866	-12.4079
7.32418203353882	-13.48627
7.33980202674866	-14.18091
7.35543203353882	-14.20831
7.37105202674866	-13.37366
7.38668203353882	-11.6232
7.40230202674866	-9.091919
7.41793203353882	-6.064331
7.43356204032898	-2.871582
7.44918203353882	0.1799316
7.46481204032898	2.867615
7.48043203353882	5.073181
7.49606204032898	6.749329
7.51169204711914	7.893372
7.52731204032898	8.546936
7.54294204711914	8.794708
7.55856204032898	8.774292
7.57419204711914	8.6315
7.58981204032898	8.492035
7.60544204711914	8.426147
7.6210720539093	8.450592
7.63669204711914	8.534424
7.6523220539093	8.627533
7.66794204711914	8.670837
7.6835720539093	8.630859
7.69919204711914	8.502136
7.7148220539093	8.300323
7.73045206069946	8.046997
7.7460720539093	7.758484
7.76170206069946	7.411896
7.7773220539093	6.954834
7.79295206069946	6.295959
7.8085720539093	5.382263
7.82420206069946	4.2099
7.83983206748962	2.854675
7.85545206069946	1.443329
7.87108206748962	0.09854126
7.88670206069946	-1.105896
7.90233206748962	-2.176544
7.91795206069946	-3.182129
7.93358206748962	-4.168396
7.94921207427979	-5.195679
7.96483206748962	-6.302856
7.98046207427979	-7.544128
7.99608206748962	-8.964905
8.01171207427979	-10.56763
8.02733206748962	-12.22189
8.04296207427979	-13.63495
8.05859208106995	-14.44296
8.07421207427979	-14.32529
8.08984208106995	-13.16333
8.10546207427979	-11.09021
8.12109208106995	-8.421631
8.13671207427979	-5.54245
8.15234208106995	-2.774597
8.16797208786011	-0.3295288
8.18359208106995	1.698883
8.19922208786011	3.252106
8.21484208106995	4.289551
8.23047208786011	4.796722
8.24609208106995	4.847748
8.26172208786011	4.619507
8.27735209465027	4.354584
8.29297208786011	4.260986
8.30860209465027	4.449463
8.32422208786011	4.87973
8.33985209465027	5.394318
8.35547208786011	5.812225
8.37110209465027	5.984924
8.38673210144043	5.864258
8.40235209465027	5.470795
8.41798210144043	4.865234
8.43360209465027	4.107697
8.44923210144043	3.250427
8.46485209465027	2.323914
8.48048210144043	1.381073
8.49611210823059	0.4804993
8.51173210144043	-0.3374939
8.52736210823059	-1.07428
8.54298210144043	-1.784576
8.55861210823059	-2.5336
8.57423210144043	-3.375458
8.58986210823059	-4.298431
8.60549211502075	-5.247284
8.62111210823059	-6.120331
8.63674211502075	-6.827209
8.65236210823059	-7.29361
8.66799211502075	-7.512665
8.68361210823059	-7.548462
8.69924211502075	-7.532715
8.71487212181091	-7.602081
8.73049211502075	-7.82254
8.74612212181091	-8.135468
8.76174211502075	-8.336914
8.77737212181091	-8.13559
8.79299211502075	-7.301208
8.80862212181091	-5.706848
8.82425212860107	-3.426056
8.83987212181091	-0.6677551
8.85550212860107	2.290253
8.87112212181091	5.167023
8.88675212860107	7.711151
8.90237212181091	9.74884
8.91800212860107	11.15491
8.93363213539124	11.90497
8.94925212860107	12.06982
8.96488213539124	11.78543
8.98050212860107	11.25787
8.99613213539124	10.66406
9.01175212860107	10.14487
9.02738213539124	9.810242
9.0430121421814	9.72644
9.05863213539124	9.959137
9.0742621421814	10.51477
9.08988213539124	11.34811
9.1055121421814	12.33478
9.12113213539124	13.27905
9.1367621421814	13.95056
9.15239214897156	14.18579
9.1680121421814	13.91382
9.18364214897156	13.19662
9.1992621421814	12.15723
9.21489214897156	10.92801
9.2305121421814	9.566895
9.24614214897156	8.045959
9.26177215576172	6.301208
9.27739214897156	4.302521
9.29302215576172	2.111298
9.30864214897156	-0.1018677
9.32427215576172	-2.130981
9.33989214897156	-3.828674
9.35552215576172	-5.172577
9.3711519241333	-6.271118
9.38677215576172	-7.31366
9.4024019241333	-8.47702
9.41802215576172	-9.912506
9.4336519241333	-11.66217
9.44927215576172	-13.70251
9.4649019241333	-15.90875
9.48053193092346	-18.04236
9.4961519241333	-19.75742
9.51178193092346	-20.68774
9.5274019241333	-20.50943
9.54303193092346	-19.09067
9.5586519241333	-16.58145
9.57428193092346	-13.40857
9.58991193771362	-10.14508
9.60553193092346	-7.339355
9.62116193771362	-5.31604
9.63678193092346	-4.113007
9.65241193771362	-3.510162
9.66803193092346	-3.186646
9.68366193771362	-2.874664
9.69929194450378	-2.432404
9.71491193771362	-1.831696
9.73054194450378	-1.11795
9.74616193771362	-0.3132629
9.76179194450378	0.5697632
9.77741193771362	1.504822
9.79304194450378	2.415955
9.80867195129395	3.194519
9.82429194450378	3.745575
9.83992195129395	4.056396
9.85554194450378	4.191711
9.87117195129395	4.2565
9.88679194450378	4.351501
9.90242195129395	4.529266
9.91805195808411	4.776062
9.93367195129395	5.0578
9.94930195808411	5.305847
9.96492195129395	5.43927
9.98055195808411	5.333038
9.99617195129395	4.865784
10.0118019580841	3.939148
10.0274319648743	2.579865
10.0430519580841	0.9042358
10.0586819648743	-0.8865662
10.0743019580841	-2.573334
10.0899319648743	-4.020752
10.1055519580841	-5.220398
10.1211819648743	-6.289215
10.1368119716644	-7.396088
10.1524319648743	-8.702789
10.1680619716644	-10.27631
10.1836819648743	-12.09512
10.1993119716644	-14.04492
10.2149419784546	-15.92365
10.2305619716644	-17.50327
10.2461919784546	-18.52905
10.2618119716644	-18.76996
10.2774419784546	-18.1001
10.2930619716644	-16.54129
10.3086919784546	-14.26392
10.3243219852448	-11.59702
10.3399419784546	-8.893616
10.3555719852448	-6.431854
10.3711919784546	-4.389435
10.3868219852448	-2.808411
10.4024419784546	-1.659454
10.4180719852448	-0.8726807
10.4337019920349	-0.3714905
10.4493219852448	-0.06689453
10.4649519920349	0.1591797
10.4805719852448	0.4490662
10.4962019920349	0.9436951
10.5118219852448	1.733429
10.5274519920349	2.862183
10.5430819988251	4.292542
10.5587019920349	5.911194
10.5743319988251	7.560303
10.5899519920349	9.050323
10.6055819988251	10.22839
10.6212019920349	10.99509
10.6368319988251	11.34494
10.6524620056152	11.32874
10.6680819988251	11.00949
10.6837120056152	10.46552
10.6993319988251	9.751617
10.7149620056152	8.910706
10.7305819988251	8.000549
10.7462120056152	7.035522
10.7618420124054	5.980042
10.7774620056152	4.727692
10.7930920124054	3.1987
10.8087120056152	1.413239
10.8243420124054	-0.459137
10.8399620056152	-2.202148
10.8555920124054	-3.660583
10.8712220191956	-4.891418
10.8868420124054	-6.151947
10.9024720191956	-7.754486
10.9180920124054	-9.883392
10.9337220191956	-12.45636
10.9493420124054	-15.19885
10.9649720191956	-17.74377
10.9806020259857	-19.82666
10.9962220191956	-21.28207
11.0118520259857	-22.00314
11.0274720191956	-21.84555
11.0431020259857	-20.62494
11.0587220191956	-18.23694
11.0743520259857	-14.80124
11.0899820327759	-10.72189
11.1056020259857	-6.568481
11.1212320327759	-2.876648
11.1368520259857	0.05853271
11.1524820327759	2.237457
11.1681020259857	3.851379
11.1837320327759	5.156128
11.199362039566	6.324707
11.2149820327759	7.385803
11.230612039566	8.284454
11.2462320327759	8.965393
11.261862039566	9.40564
11.2774820327759	9.657043
11.293112039566	9.828278
11.3087420463562	10.03464
11.324362039566	10.35989
11.3399920463562	10.8179
11.355612039566	11.32901
11.3712420463562	11.73331
11.386862039566	11.84784
11.4024920463562	11.53848
11.4181220531464	10.78802
11.4337420463562	9.706604
11.4493720531464	8.489349
11.4649920463562	7.297882
11.4806220531464	6.234863
11.4962420463562	5.294952
11.5118720531464	4.421478
11.5275020599365	3.552521
11.5431220531464	2.652374
11.5587520599365	1.721161
11.5743720531464	0.7555542
11.5900020599365	-0.2781372
11.6056220531464	-1.42865
11.6212520599365	-2.716461
11.6368820667267	-4.114807
11.6525020599365	-5.568848
11.6681320667267	-7.024963
11.6837520599365	-8.483734
11.6993820667267	-10.01553
11.7150020599365	-11.70352
11.7306320667267	-13.5488
11.7462620735168	-15.3848
11.7618820667267	-16.8588
11.7775120735168	-17.52625
11.7931320667267	-16.9978
11.8087620735168	-15.10986
11.8243820667267	-12.02417
11.8400120735168	-8.184753
11.855642080307	-4.158295
11.8712620735168	-0.4361877
11.886892080307	2.697266
11.9025120735168	5.215424
11.918142080307	7.240662
11.9337620735168	8.935547
11.949392080307	10.38959
11.9650220870972	11.5834
11.980642080307	12.46249
11.9962720870972	13.01285
12.011892080307	13.31366
12.0275220870972	13.57526
12.043142080307	14.03726
12.0587720870972	14.88806
12.0744020938873	16.16852
12.0900220870972	17.7504
12.1056520938873	19.36801
12.1212720870972	20.72446
12.1369020938873	21.59253
12.1525220870972	21.89169
12.1681520938873	21.66235
12.1837821006775	21.07404
12.1994020938873	20.27042
12.2150321006775	19.37109
12.2306520938873	18.42151
12.2462821006775	17.42441
12.2619020938873	16.35574
12.2775321006775	15.1741
12.2931621074677	13.8251
12.3087821006775	12.24707
12.3244121074677	10.40656
12.3400321006775	8.331635
12.3556621074677	6.115387
12.3712921142578	3.897888
12.3869121074677	1.770844
12.4025421142578	-0.2932129
12.4181621074677	-2.457916
12.4337921142578	-4.957916
12.4494121074677	-7.967316
12.4650421142578	-11.46939
12.480672121048	-15.18356
12.4962921142578	-18.62839
12.511922121048	-21.28214
12.5275421142578	-22.74744
12.543172121048	-22.85345
12.5587921142578	-21.63705
12.574422121048	-19.31403
12.5900521278381	-16.15836
12.605672121048	-12.45514
12.6213021278381	-8.540619
12.636922121048	-4.750214
12.6525521278381	-1.403381
12.668172121048	1.265045
12.6838021278381	3.172455
12.6994321346283	4.405151
12.7150521278381	5.126556
12.7306821346283	5.50708
12.7463021278381	5.663025
12.7619321346283	5.68222
12.7775521278381	5.625366
12.7931821346283	5.575348
12.8088121414185	5.595459
12.8244321346283	5.757996
12.8400621414185	6.113159
12.8556821346283	6.690674
12.8713121414185	7.504974
12.8869321346283	8.486511
12.9025621414185	9.451233
12.9181921482086	10.10211
12.9338121414185	10.08481
12.9494421482086	9.136444
12.9650621414185	7.196533
12.9806921482086	4.475006
12.9963121414185	1.38382
13.0119421482086	-1.641998
13.0275721549988	-4.265015
13.0431921482086	-6.363373
13.0588221549988	-7.921906
13.0744421482086	-9.006744
13.0900721549988	-9.669952
13.1056921482086	-9.968231
13.1213221549988	-10.02811
13.1369519233704	-10.05289
13.1525721549988	-10.30161
13.1682019233704	-10.99167
13.1838221549988	-12.19989
13.1994519233704	-13.79453
13.2150721549988	-15.44693
13.2307019233704	-16.73743
13.2463319301605	-17.2684
13.2619519233704	-16.79584
13.2775819301605	-15.27417
13.2932019233704	-12.8858
13.3088319301605	-9.943268
13.3244519233704	-6.827759
13.3400819301605	-3.848816
13.3557119369507	-1.230713
13.3713319301605	0.9248047
13.3869619369507	2.639343
13.4025819301605	3.986084
13.4182119369507	5.090485
13.4338319301605	6.051514
13.4494619369507	6.945526
13.4650919437408	7.799438
13.4807119369507	8.571198
13.4963419437408	9.188385
13.5119619369507	9.582245
13.5275919437408	9.766357
13.5432119369507	9.838287
13.5588419437408	9.96637
13.574471950531	10.27481
13.5900919437408	10.76807
13.605721950531	11.29013
13.6213419437408	11.60553
13.636971950531	11.49484
13.6525919437408	10.86591
13.668221950531	9.753174
13.6838519573212	8.272095
13.699471950531	6.557129
13.7151019573212	4.67749
13.730721950531	2.681519
13.7463519573212	0.6177979
13.761971950531	-1.438171
13.7776019573212	-3.3974
13.7932319641113	-5.208069
13.8088519573212	-6.895325
13.8244819641113	-8.556396
13.8401019573212	-10.33179
13.8557319641113	-12.34839
13.8713519573212	-14.67279
13.8869819641113	-17.26996
13.9026119709015	-19.99945
13.9182319641113	-22.56903
13.9338619709015	-24.60059
13.9494819641113	-25.66693
13.9651119709015	-25.40527
13.9807319641113	-23.64008
13.9963619709015	-20.45612
14.0119919776917	-16.17487
14.0276119709015	-11.28381
14.0432419776917	-6.327576
14.0588619709015	-1.798706
14.0744919776917	1.929199
14.0901119709015	4.655396
14.1057419776917	6.365295
14.1213719844818	7.222534
14.1369919776917	7.533203
14.1526219844818	7.659912
14.1682419776917	7.938416
14.1838719844818	8.552124
14.1994919776917	9.503662
14.2151219844818	10.60938
14.230751991272	11.57666
14.2463719844818	12.13477
14.262001991272	12.10364
14.2776219844818	11.46552
14.293251991272	10.3136
14.3088719844818	8.814697
14.324501991272	7.141663
14.3401319980621	5.428406
14.355751991272	3.749512
14.3713819980621	2.139038
14.387001991272	0.6257935
14.4026319980621	-0.7697144
14.418251991272	-2.042847
14.4338819980621	-3.215576
14.4495120048523	-4.348145
14.4651319980621	-5.505676
14.4807620048523	-6.764465
14.4963819980621	-8.18335
14.5120120048523	-9.781921
14.5276319980621	-11.53619
14.5432620048523	-13.32031
14.5588920116425	-14.8465
14.5745120048523	-15.67432
14.5901420116425	-15.27856
14.6057620048523	-13.19836
14.6213920116425	-9.240906
14.6370120048523	-3.595764
14.6526420116425	3.174622
14.6682720184326	10.30676
14.6838920116425	17.01636
14.6995220184326	22.70331
14.7151420116425	26.99622
14.7307720184326	29.78229
14.7463920116425	31.16101
14.7620220184326	31.41174
14.7776520252228	30.93671
14.7932720184326	30.17834
14.8089020252228	29.49908
14.8245220184326	29.03943
14.8401520252228	28.70679
14.8557720184326	28.2511
14.8714020252228	27.45288
14.8870320320129	26.25519
14.9026520252228	24.7572
14.9182820320129	23.12854
14.9339020252228	21.42908
14.9495320320129	19.57336
14.9651520252228	17.38556
14.9807820320129	14.75989
14.9964120388031	11.74414
15.0120320320129	8.564026
15.0276620388031	5.448669
15.0432820320129	2.532166
15.0589120388031	-0.194397
15.0745420455933	-2.824646
15.0901620388031	-5.434021
15.1057920455933	-7.982056
15.1214120388031	-10.33093
15.1370420455933	-12.35059
15.1526620388031	-14.02179
15.1682920455933	-15.45367
15.1839220523834	-16.84302
15.1995420455933	-18.32654
15.2151720523834	-19.90204
15.2307920455933	-21.36841
15.2464220523834	-22.37628
15.2620420455933	-22.50647
15.2776720523834	-21.43555
15.2933020591736	-19.03473
15.3089220523834	-15.4483
15.3245520591736	-11.06329
15.3401720523834	-6.421021
15.3558020591736	-2.060608
15.3714220523834	1.628357
15.3870520591736	4.48645
15.4026820659637	6.583862
15.4183020591736	8.139771
15.4339320659637	9.380005
15.4495520591736	10.50739
15.4651820659637	11.62811
15.4808020591736	12.76648
15.4964320659637	13.90424
15.5120620727539	14.99634
15.5276820659637	15.99652
15.5433120727539	16.84021
15.5589320659637	17.48682
15.5745620727539	17.9173
15.5901820659637	18.1225
15.6058120727539	18.11462
15.6214420795441	17.88055
15.6370620727539	17.3913
15.6526920795441	16.58496
15.6683120727539	15.41492
15.6839420795441	13.85413
15.6995620727539	11.95056
15.7151920795441	9.771057
15.7308220863342	7.423309
15.7464420795441	5.01944
15.7620720863342	2.652191
15.7776920795441	0.3649597
15.7933220863342	-1.855164
15.8089420795441	-4.072327
15.8245720863342	-6.385376
15.8402020931244	-8.859711
15.8558220863342	-11.46527
15.8714520931244	-14.0065
15.8870720863342	-16.13232
15.9027020931244	-17.39011
15.9183220863342	-17.35791
15.9339520931244	-15.8389
15.9495820999146	-12.86972
15.9652020931244	-8.817047
15.9808320999146	-4.229218
15.9964520931244	0.3029785
16.0120820999146	4.283875
16.0277020931244	7.424255
16.0433320999146	9.638947
16.0589621067047	10.96561
16.0745820999146	11.51443
16.0902121067047	11.43701
16.1058320999146	10.97736
16.1214621067047	10.46967
16.1370820999146	10.30048
16.1527121067047	10.74835
16.1683421134949	11.81259
16.1839621067047	13.13113
16.1995921134949	14.14716
16.2152121067047	14.31653
16.2308421134949	13.42313
16.2464621067047	11.66037
16.2620921134949	9.550537
16.277722120285	7.608582
16.2933421134949	6.092529
16.308972120285	4.883606
16.3245921134949	3.675537
16.340222120285	2.274658
16.3558421134949	0.809021
16.371472120285	-0.2766418
16.3871021270752	-0.4591064
16.402722120285	0.5509033
16.4183521270752	2.661896
16.433972120285	5.418274
16.4496021270752	8.227844
16.465222120285	10.58783
16.4808521270752	12.27466
16.4964821338654	13.34464
16.5121021270752	14.11725
16.5277321338654	15.07904
16.5433521270752	16.8017
16.5589821338654	19.76059
16.5746021270752	24.11618
16.5902321338654	29.42206
16.6058621406555	34.56464
16.6214821338654	37.92392
16.6371121406555	37.8045
16.6527321338654	33.09183
16.6683621406555	23.63943
16.6839821338654	10.39243
16.6996121406555	-4.943115
16.7152421474457	-20.40848
16.7308621406555	-34.30206
16.7464921474457	-45.51294
16.7621121406555	-53.53082
16.7777421474457	-58.35123
16.7933621406555	-60.3038
16.8089921474457	-59.87643
16.8246221542358	-57.55084
16.8402421474457	-53.59122
16.8558721542358	-47.9169
16.8714921474457	-40.13245
16.8871221542358	-29.76569
16.9027421474457	-16.6181
16.9183721542358	-1.057434
16.9340019226074	15.94406
16.9496221542358	33.07324
16.9652519226074	49.05942
16.9808721542358	62.96301
16.9965019226074	74.25189
17.0121221542358	82.62961
17.0277519226074	87.8912
17.0433819293976	89.96097
17.0590019226074	89.03906
17.0746319293976	85.79791
17.0902519226074	81.32288
17.1058819293976	76.74503
17.1215019226074	72.73291
17.1371319293976	69.13123
17.1527619361877	64.99603
17.1683819293976	59.01758
17.1840119361877	50.14206
17.1996319293976	38.01321
17.2152619361877	23.12073
17.2308919429779	6.694214
17.2465119361877	-9.558975
17.2621419429779	-23.72328
17.2777619361877	-34.00111
17.2933919429779	-39.08122
17.3090119361877	-38.56361
17.3246419429779	-33.22459
17.3402719497681	-24.93968
17.3558919429779	-16.19057
17.3715219497681	-9.274185
17.3871419429779	-5.614883
17.4027719497681	-5.472717
17.4183919429779	-8.154907
17.4340219497681	-12.61
17.4496519565582	-17.93402
17.4652719497681	-23.64873
17.4809019565582	-29.56728
17.4965219497681	-35.50941
17.5121519565582	-41.12163
17.5277719497681	-45.92732
17.5434019565582	-49.54398
17.5590319633484	-51.86813
17.5746519565582	-53.13548
17.5902819633484	-53.74113
17.6059019565582	-54.00662
17.6215319633484	-54.01126
17.6371519565582	-53.55413
17.6527819633484	-52.26469
17.6684119701385	-49.83965
17.6840319633484	-46.20152
17.6996619701385	-41.57256
17.7152819633484	-36.45104
17.7309119701385	-31.43629
17.7465319633484	-27.04225
17.7621619701385	-23.50733
17.7777919769287	-20.71998
17.7934119701385	-18.26612
17.8090419769287	-15.58823
17.8246619701385	-12.24574
17.8402919769287	-8.138832
17.8559119701385	-3.552681
17.8715419769287	0.9796143
17.8871719837189	4.933998
17.9027919769287	8.110817
17.9184219837189	10.69918
17.9340419769287	13.22328
17.9496719837189	16.21079
17.9652919769287	19.88815
17.9809219837189	24.01971
17.996551990509	27.96532
18.0121719837189	30.97979
18.027801990509	32.54425
18.0434219837189	32.5921
18.059051990509	31.61967
18.0746719837189	30.50575
18.090301990509	30.23966
18.1059319972992	31.6014
18.121551990509	34.86668
18.1371819972992	39.67402
18.152801990509	45.08667
18.1684319972992	49.81989
18.184051990509	52.59639
18.1996819972992	52.55236
18.2153120040894	49.45976
18.2309319972992	43.75462
18.2465620040894	36.3398
18.2621819972992	28.20917
18.2778120040894	20.19172
18.2934319972992	12.72774
18.3090620040894	5.856503
18.3246920108795	-0.6556454
18.3403120040894	-7.211609
18.3559420108795	-14.19879
18.3715620040894	-21.89627
18.3871920108795	-30.37652
18.4028120040894	-39.47327
18.4184420108795	-48.82248
18.4340720176697	-57.93085
18.4496920108795	-66.33069
18.4653220176697	-73.67308
18.4809420108795	-79.76207
18.4965720176697	-84.51555
18.5121920108795	-87.90669
18.5278220176697	-89.87674
18.5434520244598	-90.3661
18.5590720176697	-89.27942
18.5747020244598	-86.56892
18.5903220176697	-82.25976
18.6059520244598	-76.47262
18.6215720176697	-69.43562
18.6372020244598	-61.47006
18.65283203125	-52.96414
18.6684520244598	-44.30908
18.68408203125	-35.86823
18.6997020244598	-27.90417
18.71533203125	-20.58363
18.7309520244598	-13.9733
18.74658203125	-8.031685
18.7622120380402	-2.688171
18.77783203125	2.142006
18.7934620380402	6.491753
18.80908203125	10.30054
18.8247120380402	13.44838
18.84033203125	15.89815
18.8559620380402	17.82262
18.8715920448303	19.72308
18.8872120380402	22.32024
18.9028420448303	26.3453
18.9184620380402	32.22915
18.9340920448303	39.91312
18.9497120380402	48.82829
18.9653420448303	58.11797
18.9809720516205	66.92982
18.9965920448303	74.64011
19.0122220516205	80.96295
19.0278420448303	85.87727
19.0434720516205	89.45288
19.0590920448303	91.70879
19.0747220516205	92.56847
19.0903520584106	91.91148
19.1059720516205	89.62691
19.1216020584106	85.74838
19.1372220516205	80.49794
19.1528520584106	74.33318
19.1684720516205	67.91644
19.1841020584106	62.01917
19.1997320652008	57.36665
19.2153520584106	54.42395
19.2309820652008	53.22638
19.2466020584106	53.31784
19.2622320652008	53.8765
19.2778520584106	53.91608
19.2934820652008	52.60066
19.309112071991	49.42841
19.3247320652008	44.34035
19.340362071991	37.64314
19.3559820652008	29.81038
19.371612071991	21.25244
19.3872320652008	12.15962
19.402862071991	2.486099
19.4184920787811	-7.925888
19.434112071991	-19.15565
19.4497420787811	-31.04285
19.465362071991	-43.14828
19.4809920787811	-54.82727
19.4966220855713	-65.4516
19.5122420787811	-74.52957
19.5278720855713	-81.78354
19.5434920787811	-87.06699
19.5591220855713	-90.23883
19.5747420787811	-91.0921
19.5903720855713	-89.39337
19.6060020923615	-85.04373
19.6216220855713	-78.19366
19.6372520923615	-69.26089
19.6528720855713	-58.83179
19.6685020923615	-47.46927
19.6841220855713	-35.53531
19.6997520923615	-23.21875
19.7153820991516	-10.63019
19.7310020923615	2.139008
19.7466320991516	14.77109
19.7622520923615	26.81714
19.7778820991516	37.74359
19.7935020923615	46.97772
19.8091320991516	53.97205
19.8247621059418	58.22559
19.8403820991516	59.28394
19.8560121059418	56.79834
19.8716320991516	50.62332
19.8872621059418	40.88428
19.9028820991516	28.0636
19.9185121059418	13.02872
19.9341421127319	-3.001404
19.9497621059418	-18.54874
19.9653921127319	-32.0632
19.9810121059418	-42.23291
19.9966421127319	-48.26794
20.0122621059418	-50.12106
20.0278921127319	-48.45981
20.0435221195221	-44.44678
20.0591421127319	-39.33859
20.0747721195221	-34.1911
20.0903921127319	-29.69119
20.1060221195221	-26.19104
20.1216421127319	-23.90442
20.1372721195221	-22.95978
20.1529021263123	-23.38525
20.1685221195221	-25.03116
20.1841521263123	-27.46906
20.1997721195221	-30.06158
20.2154021263123	-32.11084
20.2310221195221	-32.95886
20.2466521263123	-32.16608
20.2622821331024	-29.54639
20.2779021263123	-25.11688
20.2935321331024	-19.11499
20.3091521263123	-11.92017
20.3247821331024	-3.988708
20.3404021263123	4.238098
20.3560321331024	12.38208
20.3716621398926	20.16974
20.3872821331024	27.37195
20.4029121398926	33.73322
20.4185321331024	38.8631
20.4341621398926	42.32025
20.4497821331024	43.71375
20.4654121398926	42.88031
20.4810421466827	39.97333
20.4966621398926	35.42523
20.5122921466827	29.77863
20.5279121398926	23.54199
20.5435421466827	17.04144
20.5591621398926	10.44135
20.5747921466827	3.687805
20.5904221534729	-3.452271
20.6060421466827	-11.35815
20.6216721534729	-20.40833
20.6372921466827	-30.73407
20.6529221534729	-41.90253
20.6685421466827	-52.81097
20.6841721534729	-61.84088
20.6998019218445	-67.34467
20.7154221534729	-68.27032
20.7310519218445	-64.66132
20.7466721534729	-57.66333
20.7623019218445	-49.21802
20.7779221534729	-41.34686
20.7935519218445	-35.49335
20.8091819286346	-32.17694
20.8248019218445	-31.03442
20.8404319286346	-31.16357
20.8560519218445	-31.59625
20.8716819286346	-31.61926
20.8873019218445	-30.87848
20.9029319286346	-29.22791
20.9185619354248	-26.6026
20.9341819286346	-22.84174
20.9498119354248	-17.68719
20.9654319286346	-11.02789
20.9810619354248	-2.990479
20.9966819286346	5.940796
21.0123119354248	14.94373
21.027941942215	23.06073
21.0435619354248	29.3988
21.059191942215	33.29547
21.0748119354248	34.36511
21.090441942215	32.47595
21.1060619354248	27.63031
21.121691942215	19.92438
21.1373219490051	9.547852
21.152941942215	-3.095154
21.1685719490051	-17.2475
21.184191942215	-31.67694
21.1998219490051	-44.76105
21.215441942215	-54.78351
21.2310719490051	-60.50018
21.2467019557953	-61.52411
21.2623219490051	-58.53424
21.2779519557953	-53.05896
21.2935719490051	-46.93591
21.3092019557953	-41.71069
21.3248219490051	-38.18915
21.3404519557953	-36.33881
21.3560819625854	-35.51324
21.3717019557953	-34.87042
21.3873319625854	-33.74426
21.4029519557953	-31.82544
21.4185819625854	-29.18359
21.4342019557953	-26.10083
21.4498319625854	-22.81299
21.4654619693756	-19.42462
21.4810819625854	-15.79974
21.4967119693756	-11.56403
21.5123319625854	-6.275085
21.5279619693756	0.4490967
21.5435819625854	8.834045
21.5592119693756	18.71692
21.5748419761658	29.63892
21.5904619693756	40.81219
21.6060919761658	51.15338
21.6217119693756	59.3924
21.6373419761658	64.21222
21.6529619693756	64.45563
21.6685919761658	59.44977
21.6842219829559	49.36847
21.6998419761658	35.43451
21.7154719829559	19.75555
21.7310919761658	4.769775
21.7467219829559	-7.545593
21.7623419761658	-16.32196
21.7779719829559	-21.95032
21.7936019897461	-25.64343
21.8092219829559	-28.68872
21.8248519897461	-31.71985
21.8404719829559	-34.54187
21.8561019897461	-36.46216
21.8717219829559	-36.95685
21.8873519897461	-36.19031
21.9029819965363	-35.02747
21.9186019897461	-34.57941
21.9342319965363	-35.55139
21.9498519897461	-37.83502
21.9654819965363	-40.55597
21.9811019897461	-42.57892
21.9967319965363	-43.09625
22.0123620033264	-42.05377
22.0279819965363	-40.13599
22.0436120033264	-38.31525
22.0592319965363	-37.4585
22.0748620033264	-37.85474
22.0904920101166	-39.12384
22.1061120033264	-40.43829
22.1217420101166	-40.84216
22.1373620033264	-39.54364
22.1529920101166	-36.06769
22.1686120033264	-30.26276
22.1842420101166	-22.23047
22.1998720169067	-12.315
22.2154920101166	-1.124023
22.2311220169067	10.43219
22.2467420101166	21.18256
22.2623720169067	29.8374
22.2779920101166	35.36346
22.2936220169067	37.2627
22.3092520236969	35.76331
22.3248720169067	31.74969
22.3405020236969	26.44116
22.3561220169067	21.04877
22.3717520236969	16.47723
22.3873720169067	13.20526
22.4030020236969	11.32159
22.4186320304871	10.64789
22.4342520236969	10.84534
22.4498820304871	11.49097
22.4655020236969	12.15564
22.4811320304871	12.49341
22.4967520236969	12.37305
22.5123820304871	11.90576
22.5280120372772	11.40674
22.5436320304871	11.22028
22.5592620372772	11.52881
22.5748820304871	12.23511
22.5905120372772	13.04501
22.6061320304871	13.62958
22.6217620372772	13.79163
22.6373920440674	13.56052
22.6530120372772	13.10019
22.6686420440674	12.54483
22.6842620372772	11.94824
22.6998920440674	11.21417
22.7155120372772	10.23511
22.7311420440674	8.987946
22.7467720508575	7.664276
22.7623920440674	6.592102
22.7780220508575	6.116119
22.7936420440674	6.486603
22.8092720508575	7.758179
22.8248920440674	9.830872
22.8405220508575	12.52985
22.8561520576477	15.65378
22.8717720508575	19.03018
22.8874020576477	22.49634
22.9030220508575	25.95114
22.9186520576477	29.43845
22.9342720508575	33.18039
22.9499020576477	37.60834
22.9655320644379	43.20285
22.9811520576477	50.21582
22.9967820644379	58.45193
23.0124020576477	67.16891
23.0280320644379	75.23474
23.0436520576477	81.45605
23.0592820644379	84.99496
23.074912071228	85.59747
23.0905320644379	83.58258
23.106162071228	79.58841
23.1217820644379	74.21893
23.137412071228	67.74106
23.1530320644379	60.08563
23.168662071228	50.9534
23.1842920780182	40.134
23.199912071228	27.68445
23.2155420780182	14.00195
23.231162071228	-0.2966919
23.2467920780182	-14.54016
23.262412071228	-28.16205
23.2780420780182	-40.81696
23.2936720848083	-52.33527
23.3092920780182	-62.68524
23.3249220848083	-71.87274
23.3405420780182	-79.87286
23.3561720848083	-86.59476
23.3717920780182	-91.84106
23.3874220848083	-95.41092
23.4030520915985	-97.17508
23.4186720848083	-97.12167
23.4343020915985	-95.44247
23.4499220848083	-92.48499
23.4655520915985	-88.64746
23.4811720848083	-84.26028
23.4968020915985	-79.57248
23.5124320983887	-74.74002
23.5280520915985	-69.92291
23.5436820983887	-65.35349
23.5593020915985	-61.31787
23.5749320983887	-58.08496
23.5905520915985	-55.80133
23.6061820983887	-54.41577
23.6218121051788	-53.68488
23.6374320983887	-53.29138
23.6530621051788	-52.88446
23.6686820983887	-52.19028
23.6843121051788	-50.96735
23.6999320983887	-48.97888
23.7155621051788	-45.99783
23.731192111969	-41.84192
23.7468121051788	-36.48074
23.762442111969	-30.10181
23.7780621051788	-23.12784
23.793692111969	-16.06897
23.8093121051788	-9.397247
23.824942111969	-3.371948
23.8405721187592	1.990784
23.856192111969	6.831299
23.8718221187592	11.37997
23.887442111969	15.83899
23.9030721187592	20.32986
23.918692111969	24.94012
23.9343221187592	29.75903
23.9499521255493	34.85562
23.9655721187592	40.26706
23.9812021255493	45.97754
23.9968221187592	51.86075
24.0124521255493	57.68594
24.0280721187592	63.15857
24.0437021255493	67.92773
24.0593321323395	71.68863
24.0749521255493	74.23322
24.0905821323395	75.49277
24.1062021255493	75.57324
24.1218321323395	74.75214
24.1374521255493	73.4054
24.1530821323395	71.92044
24.1687121391296	70.63974
24.1843321323395	69.74518
24.1999621391296	69.26932
24.2155821323395	69.07596
24.2312121391296	68.88849
24.2468321323395	68.30786
24.2624621391296	66.92068
24.2780921459198	64.35306
24.2937121391296	60.37112
24.3093421459198	55.01648
24.3249621391296	48.55304
24.3405921459198	41.53186
24.35622215271	34.61841
24.3718421459198	28.48074
24.38747215271	23.60654
24.4030921459198	20.17404
24.41872215271	18.02216
24.4343421459198	16.67752
24.44997215271	15.56598
24.4656019210815	14.0903
24.48122215271	11.81522
24.4968519210815	8.490173
24.51247215271	4.082886
24.5281019210815	-1.228271
24.54372215271	-7.104401
24.5593519210815	-13.1033
24.5749819278717	-18.77945
24.5906019210815	-23.74579
24.6062319278717	-27.82855
24.6218519210815	-31.05908
24.6374819278717	-33.71198
24.6531019210815	-36.26877
24.6687319278717	-39.26746
24.6843619346619	-43.13083
24.6999819278717	-47.92456
24.7156119346619	-53.18063
24.7312319278717	-57.8927
24.7468619346619	-60.80664
24.7624819278717	-60.82806
24.7781119346619	-57.53256
24.793741941452	-51.409
24.8093619346619	-43.73969
24.824991941452	-36.17151
24.8406119346619	-30.11304
24.856241941452	-26.33759
24.8718619346619	-24.8519
24.887491941452	-25.13983
24.9031219482422	-26.46182
24.918741941452	-28.16742
24.9343719482422	-29.80374
24.949991941452	-31.11456
24.9656219482422	-31.99939
24.981241941452	-32.47198
24.9968719482422	-32.60788
25.0125019550323	-32.48366
25.0281219482422	-32.04585
25.0437519550323	-31.0258
25.0593719482422	-28.91058
25.0750019550323	-25.10033
25.0906219482422	-19.12358
25.1062519550323	-10.85498
25.1218819618225	-0.610672
25.1375019550323	10.92958
25.1531319618225	22.87837
25.1687519550323	34.33275
25.1843819618225	44.53218
25.2000019550323	52.91692
25.2156319618225	59.13351
25.2312619686127	63.06232
25.2468819618225	64.76799
25.2625119686127	64.46924
25.2781319618225	62.47781
25.2937619686127	59.14981
25.3093819618225	54.86819
25.3250119686127	50.02231
25.3406419754028	45.04251
25.3562619686127	40.33424
25.3718919754028	36.22842
25.3875119686127	32.85461
25.4031419754028	30.10045
25.4187619686127	27.62524
25.4343919754028	24.95624
25.450021982193	21.60442
25.4656419754028	17.20728
25.481271982193	11.66629
25.4968919754028	5.230682
25.512521982193	-1.472122
25.5281419754028	-7.507736
25.543771982193	-11.8593
25.5594019889832	-13.70053
25.575021982193	-12.68251
25.5906519889832	-9.069427
25.606271982193	-3.65889
25.6219019889832	2.498978
25.637521982193	8.408951
25.6531519889832	13.42789
25.6687819957733	17.35957
25.6844019889832	20.36533
25.7000319957733	22.78027
25.7156519889832	24.90569
25.7312819957733	26.89351
25.7469019889832	28.72722
25.7625319957733	30.31248
25.7781620025635	31.57684
25.7937819957733	32.56857
25.8094120025635	33.52348
25.8250319957733	34.8018
25.8406620025635	36.77284
25.8562819957733	39.63239
25.8719120025635	43.24803
25.8875420093536	47.164
25.9031620025635	50.69455
25.9187920093536	53.1386
25.9344120025635	53.99156
25.9500420093536	53.06474
25.9656620025635	50.457
25.9812920093536	46.44574
25.9969220161438	41.38188
26.0125420093536	35.50867
26.0281720161438	28.94987
26.0437920093536	21.65184
26.0594220161438	13.47928
26.0750420093536	4.229187
26.0906720161438	-6.262909
26.106302022934	-18.05295
26.1219220161438	-30.9762
26.137552022934	-44.63333
26.1531720161438	-58.39944
26.168802022934	-71.52856
26.1844220161438	-83.33807
26.200052022934	-93.38666
26.2156820297241	-101.5627
26.231302022934	-108.0779
26.2469320297241	-113.321
26.262552022934	-117.6652
26.2781820297241	-121.2821
26.293802022934	-124.1016
26.3094320297241	-125.8343
26.3250620365143	-126.1078
26.3406820297241	-124.6088
26.3563120365143	-121.1468
26.3719320297241	-115.6676
26.3875620365143	-108.2662
26.4031820297241	-99.21686
26.4188120365143	-89.04288
26.4344420433044	-78.51633
26.4500620365143	-68.55202
26.4656920433044	-60.02452
26.4813120365143	-53.54643
26.4969420433044	-49.28445
26.5125720500946	-46.97414
26.5281920433044	-45.97978
26.5438220500946	-45.51353
26.5594420433044	-44.76308
26.5750720500946	-43.05455
26.5906920433044	-39.89995
26.6063220500946	-35.09334
26.6219520568848	-28.66153
26.6375720500946	-20.86606
26.6532020568848	-12.17867
26.6688220500946	-3.170837
26.6844520568848	5.522278
26.7000720500946	13.24492
26.7157020568848	19.41148
26.7313320636749	23.59238
26.7469520568848	25.60799
26.7625820636749	25.54579
26.7782020568848	23.73669
26.7938320636749	20.65523
26.8094520568848	16.90817
26.8250820636749	13.28284
26.8407120704651	10.75526
26.8563320636749	10.31745
26.8719620704651	12.74477
26.8875820636749	18.20409
26.9032120704651	26.04823
26.9188320636749	34.91451
26.9344620704651	43.16691
26.9500920772552	49.39157
26.9657120704651	52.80628
26.9813420772552	53.32209
26.9969620704651	51.33192
27.0125920772552	47.36518
27.0282120704651	41.89409
27.0438420772552	35.28899
27.0594720840454	27.92417
27.0750920772552	20.27361
27.0907220840454	12.885
27.1063420772552	6.229837
27.1219720840454	0.6131897
27.1375920772552	-3.900122
27.1532220840454	-7.470198
27.1688520908356	-10.26509
27.1844720840454	-12.4081
27.2001020908356	-13.82906
27.2157220840454	-14.27607
27.2313520908356	-13.50001
27.2469720840454	-11.37807
27.2626020908356	-8.161957
27.2782320976257	-4.512772
27.2938520908356	-1.484108
27.3094820976257	-0.2865601
27.3251020908356	-1.973434
27.3407320976257	-7.156319
27.3563520908356	-15.79823
27.3719820976257	-27.10713
27.3876121044159	-39.61391
27.4032320976257	-51.39098
27.4188621044159	-60.42233
27.4344820976257	-65.05589
27.4501121044159	-64.4343
27.4657320976257	-58.72299
27.4813621044159	-49.0858
27.4969921112061	-37.32628
27.5126121044159	-25.39824
27.5282421112061	-14.89597
27.5438621044159	-6.755997
27.5594921112061	-1.169281
27.5751121044159	2.201599
27.5907421112061	3.994522
27.6063721179962	4.834213
27.6219921112061	5.227234
27.6376221179962	5.486206
27.6532421112061	5.82869
27.6688721179962	6.516983
27.6844921112061	7.768112
27.7001221179962	9.785645
27.7157521247864	12.67331
27.7313721179962	16.26318
27.7470021247864	20.1936
27.7626221179962	23.99414
27.7782521247864	27.24719
27.7938721179962	29.74719
27.8095021247864	31.55676
27.8251321315765	32.90564
27.8407521247864	34.05212
27.8563821315765	35.11261
27.8720021247864	36.00751
27.8876321315765	36.4783
27.9032521247864	36.18158
27.9188821315765	34.80844
27.9345121383667	32.16696
27.9501321315765	28.26532
27.9657621383667	23.28503
27.9813821315765	17.57312
27.9970121383667	11.55072
28.0126321315765	5.615662
28.0282621383667	0.08889771
28.0438921451569	-4.823151
28.0595121383667	-9.013733
28.0751421451569	-12.49207
28.0907621383667	-15.32245
28.1063921451569	-17.60098
28.1220121383667	-19.43597
28.1376421451569	-20.9516
28.153272151947	-22.30905
28.1688921451569	-23.7023
28.184522151947	-25.37573
28.2001421451569	-27.55939
28.215772151947	-30.34784
28.2313921451569	-33.60059
28.247022151947	-36.87476
28.2626519203186	-39.47827
28.278272151947	-40.60541
28.2939019203186	-39.61975
28.309522151947	-36.22144
28.3251519203186	-30.58221
28.340772151947	-23.25262
28.3564019203186	-14.99384
28.3720319271088	-6.530579
28.3876519203186	1.609131
28.4032819271088	9.142212
28.4189019203186	15.98236
28.4345319271088	22.11603
28.4501519203186	27.53442
28.4657819271088	32.18793
28.4814119338989	36.05518
28.4970319271088	39.17999
28.5126619338989	41.7168
28.5282819271088	43.8717
28.5439119338989	45.82977
28.5595319271088	47.66626
28.5751619338989	49.33307
28.5907919406891	50.72937
28.6064119338989	51.80597
28.6220419406891	52.61176
28.6376619338989	53.22601
28.6532919406891	53.66663
28.6689119338989	53.84094
28.6845419406891	53.52325
28.7001719474792	52.53357
28.7157919406891	50.81714
28.7314219474792	48.48615
28.7470419406891	45.73938
28.7626719474792	42.74689
28.7782919406891	39.56982
28.7939219474792	36.17633
28.8095519542694	32.56683
28.8251719474792	28.82379
28.8408019542694	25.14124
28.8564219474792	21.71661
28.8720519542694	18.65948
28.8876719474792	15.88458
28.9033019542694	13.20074
28.9189319610596	10.43488
28.9345519542694	7.518005
28.9501819610596	4.54187
28.9658019542694	1.686584
28.9814319610596	-0.8364258
28.9970519542694	-2.873291
29.0126819610596	-4.408997
29.0283119678497	-5.549988
29.0439319610596	-6.5354
29.0595619678497	-7.686951
29.0751819610596	-9.339417
29.0908119678497	-11.70001
29.1064319610596	-14.81525
29.1220619678497	-18.45978
29.1376919746399	-22.16644
29.1533119678497	-25.31427
29.1689419746399	-27.25983
29.1845619678497	-27.55078
29.2001919746399	-26.0686
29.2158219814301	-23.09393
29.2314419746399	-19.26343
29.2470719814301	-15.32611
29.2626919746399	-11.94226
29.2783219814301	-9.444885
29.2939419746399	-7.805237
29.3095719814301	-6.703125
29.3252019882202	-5.737549
29.3408219814301	-4.556641
29.3564519882202	-2.995178
29.3720719814301	-1.041992
29.3877019882202	1.131592
29.4033219814301	3.262451
29.4189519882202	5.08551
29.4345819950104	6.440674
29.4502019882202	7.365356
29.4658319950104	8.110291
29.4814519882202	9.008972
29.4970819950104	10.33508
29.5127019882202	12.09967
29.5283319950104	14.04938
29.5439620018005	15.84595
29.5595819950104	17.27539
29.5752120018005	18.36945
29.5908319950104	19.40802
29.6064620018005	20.66101
29.6220819950104	22.20496
29.6377120018005	23.81683
29.6533420085907	25.11487
29.6689620018005	25.7865
29.6845920085907	25.75964
29.7002120018005	25.21985
29.7158420085907	24.4364
29.7314620018005	23.58026
29.7470920085907	22.71332
29.7627220153809	21.76245
29.7783420085907	20.6745
29.7939720153809	19.46362
29.8095920085907	18.20508
29.8252220153809	16.94928
29.8408420085907	15.71497
29.8564720153809	14.49933
29.872102022171	13.3327
29.8877220153809	12.26843
29.903352022171	11.29462
29.9189720153809	10.22382
29.934602022171	8.640747
29.9502220153809	5.987061
29.965852022171	1.793701
29.9814820289612	-4.083374
29.997102022171	-11.28137
30.0127320289612	-18.97656
30.028352022171	-26.0946
30.0439820289612	-31.59717
30.059602022171	-34.72937
30.0752320289612	-35.14685
30.0908620357513	-32.95837
30.1064820289612	-28.63147
30.1221120357513	-22.84973
30.1377320289612	-16.37903
30.1533620357513	-9.919312
30.1689820289612	-4.012573
30.1846120357513	1.013428
30.2002420425415	5.052246
30.2158620357513	8.15979
30.2314920425415	10.45911
30.2471120357513	12.1333
30.2627420425415	13.36646
30.2783620357513	14.35571
30.2939920425415	15.29663
30.3096220493317	16.37146
30.3252420425415	17.68225
30.3408720493317	19.22021
30.3564920425415	20.86633
30.3721220493317	22.4093
30.3877420425415	23.62122
30.4033720493317	24.34888
30.4190020561218	24.56848
30.4346220493317	24.43262
30.4502520561218	24.20813
30.4658720493317	24.19446
30.4815020561218	24.56958
30.4971220493317	25.35083
30.5127520561218	26.37683
30.528382062912	27.39099
30.5440020561218	28.15076
30.559632062912	28.495
30.5752520561218	28.39819
30.590882062912	27.93445
30.6065020561218	27.23328
30.622132062912	26.44397
30.6377620697021	25.72449
30.653382062912	25.22961
30.6690120697021	25.0553
30.684632062912	25.20996
30.7002620697021	25.53796
30.715882062912	25.7196
30.7315120697021	25.30103
30.7471420764923	23.87305
30.7627620697021	21.13147
30.7783920764923	17.00317
30.7940120697021	11.63757
30.8096420764923	5.370361
30.8252620697021	-1.336304
30.8408920764923	-7.956055
30.8565220832825	-14.02112
30.8721420764923	-19.1748
30.8877720832825	-23.20776
30.9033920764923	-26.08411
30.9190220832825	-27.87439
30.9346420764923	-28.66699
30.9502720832825	-28.54285
30.9659020900726	-27.54077
30.9815220832825	-25.71509
30.9971520900726	-23.18787
31.0127720832825	-20.15356
31.0284020900726	-16.87146
31.0440220832825	-13.61072
31.0596520900726	-10.57776
31.0752820968628	-7.911499
31.0909020900726	-5.689697
31.1065320968628	-3.963745
31.1221520900726	-2.757935
31.1377820968628	-2.021973
31.1534020900726	-1.573853
31.1690320968628	-1.098022
31.184662103653	-0.2001953
31.2002820968628	1.440674
31.215912103653	3.953979
31.2315320968628	7.200806
31.247162103653	10.85779
31.2627820968628	14.53918
31.278412103653	17.97119
31.2940421104431	21.07239
31.309662103653	23.93115
31.3252921104431	26.70667
31.340912103653	29.51306
31.3565421104431	32.29224
31.3721721172333	34.84766
31.3877921104431	36.88721
31.4034221172333	38.12036
31.4190421104431	38.35022
31.4346721172333	37.54016
31.4502921104431	35.82153
31.4659221172333	33.49109
31.4815521240234	30.91064
31.4971721172333	28.41443
31.5128021240234	26.2179
31.5284221172333	24.35767
31.5440521240234	22.7312
31.5596721172333	21.16577
31.5753021240234	19.50964
31.5909321308136	17.6803
31.6065521240234	15.68762
31.6221821308136	13.60571
31.6378021240234	11.54395
31.6534321308136	9.633179
31.6690521240234	7.968872
31.6846821308136	6.593506
31.7003121376038	5.446289
31.7159321308136	4.393433
31.7315621376038	3.233521
31.7471821308136	1.76062
31.7628121376038	-0.182373
31.7784321308136	-2.661743
31.7940621376038	-5.610107
31.8096921443939	-8.797852
31.8253121376038	-11.84924
31.8409421443939	-14.28357
31.8565621376038	-15.65015
31.8721921443939	-15.65234
31.8878121376038	-14.24866
31.9034421443939	-11.67932
31.9190721511841	-8.38916
31.9346921443939	-4.901733
31.9503221511841	-1.674805
31.9659421443939	1.008545
31.9815721511841	3.075439
31.9971921443939	4.629883
32.0128221511841	5.868164
32.0284519195557	6.987793
32.0440721511841	8.09375
32.0597019195557	9.176392
32.0753221511841	10.10156
32.0909519195557	10.68518
32.1065721511841	10.78748
32.1222019195557	10.39648
32.1378319263458	9.634766
32.1534519195557	8.709351
32.1690819263458	7.836182
32.1847019195557	7.141235
32.2003319263458	6.628906
32.2159519195557	6.203857
32.2315819263458	5.703735
32.247211933136	4.995483
32.2628319263458	3.998901
32.278461933136	2.720337
32.2940819263458	1.224609
32.309711933136	-0.3929443
32.3253319263458	-2.047852
32.340961933136	-3.661499
32.3565919399261	-5.202393
32.372211933136	-6.661499
32.3878419399261	-8.06543
32.403461933136	-9.466187
32.4190919399261	-10.93518
32.434711933136	-12.53503
32.4503419399261	-14.29297
32.4659719467163	-16.18121
32.4815919399261	-18.08435
32.4972219467163	-19.81519
32.5128419399261	-21.15039
32.5284719467163	-21.90747
32.5440919399261	-22.04706
32.5597219467163	-21.70166
32.5753519535065	-21.16547
32.5909719467163	-20.79932
32.6066019535065	-20.88593
32.6222219467163	-21.48785
32.6378519535065	-22.37897
32.6534719467163	-23.07233
32.6691019535065	-22.98138
32.6847319602966	-21.62097
32.7003519535065	-18.78058
32.7159819602966	-14.58014
32.7316019535065	-9.419312
32.7472319602966	-3.837891
32.7628519535065	1.640381
32.7784819602966	6.62384
32.7941119670868	10.90521
32.8097319602966	14.43372
32.8253619670868	17.25873
32.8409819602966	19.4953
32.8566119670868	21.30896
32.8722319602966	22.86041
32.8878619670868	24.31708
32.903491973877	25.82019
32.9191119670868	27.43457
32.934741973877	29.15582
32.9503619670868	30.90344
32.965991973877	32.54004
32.9816119670868	33.90125
32.997241973877	34.8576
33.0128719806671	35.37091
33.028491973877	35.51666
33.0441219806671	35.46912
33.059741973877	35.41565
33.0753719806671	35.45721
33.090991973877	35.52777
33.1066219806671	35.43433
33.1222519874573	34.92261
33.1378719806671	33.79663
33.1535019874573	31.99146
33.1691219806671	29.58405
33.1847519874573	26.7179
33.2003719806671	23.53357
33.2160019874573	20.08685
33.2316319942474	16.37396
33.2472519874573	12.34485
33.2628819942474	8.000061
33.2785019874573	3.428101
33.2941319942474	-1.188782
33.3097519874573	-5.571167
33.3253819942474	-9.395569
33.3410120010376	-12.37885
33.3566319942474	-14.3349
33.3722620010376	-15.25812
33.3878819942474	-15.31128
33.4035120010376	-14.79816
33.4191319942474	-14.11212
33.4347620010376	-13.61523
33.4503920078278	-13.53485
33.4660120010376	-13.88428
33.4816420078278	-14.42468
33.4972620010376	-14.72174
33.5128920078278	-14.29993
33.5285120010376	-12.80341
33.5441420078278	-10.11133
33.5597720146179	-6.417603
33.5753920078278	-2.164001
33.5910220146179	2.068237
33.6066420078278	5.706604
33.6222720146179	8.31958
33.6378920078278	9.678162
33.6535220146179	9.783203
33.6691520214081	8.848022
33.6847720146179	7.2229
33.7004020214081	5.320618
33.7160220146179	3.531982
33.7316520214081	2.196716
33.7472720146179	1.526489
33.7629020214081	1.629395
33.7785320281982	2.483459
33.7941520214081	3.917236
33.8097820281982	5.633301
33.8254020214081	7.262329
33.8410320281982	8.463684
33.8566520214081	9.051086
33.8722820281982	9.032654
33.8879120349884	8.60376
33.9035320281982	8.025818
33.9191620349884	7.519287
33.9347820281982	7.149231
33.9504120349884	6.84729
33.9660420417786	6.486694
33.9816620349884	6.006165
33.9972920417786	5.486267
34.0129120349884	5.112427
34.0285420417786	5.04303
34.0441620349884	5.303162
34.0597920417786	5.699829
34.0754220485687	5.87146
34.0910420417786	5.408447
34.1066720485687	4.031738
34.1222920417786	1.713562
34.1379220485687	-1.329712
34.1535420417786	-4.741577
34.1691720485687	-8.218384
34.1848020553589	-11.62903
34.2004220485687	-15.0448
34.2160520553589	-18.64978
34.2316720485687	-22.56171
34.2473020553589	-26.72809
34.2629220485687	-30.90875
34.2785520553589	-34.74274
34.294182062149	-37.88818
34.3098020553589	-40.08905
34.325432062149	-41.23657
34.3410520553589	-41.30469
34.356682062149	-40.29572
34.3723020553589	-38.24915
34.387932062149	-35.25647
34.4035620689392	-31.53632
34.419182062149	-27.41101
34.4348120689392	-23.26129
34.450432062149	-19.44208
34.4660620689392	-16.16119
34.481682062149	-13.46716
34.4973120689392	-11.25824
34.5129420757294	-9.349854
34.5285620689392	-7.549072
34.5441920757294	-5.720154
34.5598120689392	-3.791626
34.5754420757294	-1.735535
34.5910620689392	0.4266357
34.6066920757294	2.679199
34.6223220825195	4.983948
34.6379420757294	7.296448
34.6535720825195	9.56311
34.6691920757294	11.71014
34.6848220825195	13.65088
34.7004420757294	15.32153
34.7160720825195	16.6936
34.7317020893097	17.77423
34.7473220825195	18.59808
34.7629520893097	19.18958
34.7785720825195	19.53287
34.7942020893097	19.53711
34.8098220825195	19.09439
34.8254520893097	18.10388
34.8410820960999	16.53445
34.8567020893097	14.46011
34.8723320960999	12.02609
34.8879520893097	9.423981
34.9035820960999	6.805206
34.9192020893097	4.221802
34.9348320960999	1.608887
34.95046210289	-1.174591
34.9660820960999	-4.276794
34.98171210289	-7.777985
34.9973320960999	-11.61575
35.01296210289	-15.60785
35.0285820960999	-19.50928
35.04421210289	-23.1297
35.0598421096802	-26.42722
35.07546210289	-29.50702
35.0910921096802	-32.5441
35.10671210289	-35.59833
35.1223421096802	-38.51367
35.13796210289	-40.87271
35.1535921096802	-42.15237
35.1692221164703	-41.90277
35.1848421096802	-39.95752
35.2004721164703	-36.46277
35.2160921096802	-31.79553
35.2317221164703	-26.40576
35.2473421096802	-20.66068
35.2629721164703	-14.82388
35.2786021232605	-9.075134
35.2942221164703	-3.557343
35.3098521232605	1.612518
35.3254721164703	6.442657
35.3411021232605	11.14676
35.3567221164703	16.13535
35.3723521232605	21.84113
35.3879821300507	28.48987
35.4036021232605	35.92169
35.4192321300507	43.57104
35.4348521232605	50.63443
35.4504821300507	56.36884
35.4661021232605	60.30646
35.4817321300507	62.34235
35.4973621368408	62.64301
35.5129821300507	61.51669
35.5286121368408	59.28149
35.5442321300507	56.21713
35.5598621368408	52.58475
35.5754821300507	48.6358
35.5911121368408	44.60605
35.606742143631	40.61093
35.6223621368408	36.60275
35.637992143631	32.39716
35.6536121368408	27.78143
35.669242143631	22.68695
35.6848621368408	17.25262
35.700492143631	11.80984
35.7161221504211	6.739807
35.731742143631	2.305695
35.7473721504211	-1.39566
35.762992143631	-4.437805
35.7786221504211	-6.975525
35.794242143631	-9.175079
35.8098721504211	-11.21893
35.8255021572113	-13.33649
35.8411221504211	-15.80942
35.8567521572113	-18.91037
35.8723721504211	-22.78897
35.8880021572113	-27.3783
35.9036221504211	-32.42447
35.9192521572113	-37.57439
35.9348819255829	-42.55127
35.9505021572113	-47.2708
35.9661319255829	-51.84279
35.9817521572113	-56.40755
35.9973819255829	-60.95714
36.0130021572113	-65.19179
36.0286319255829	-68.53157
36.044261932373	-70.30348
36.0598819255829	-69.98099
36.075511932373	-67.47298
36.0911319255829	-63.17796
36.106761932373	-57.87209
36.1223819255829	-52.45169
36.138011932373	-47.58369
36.1536419391632	-43.53055
36.169261932373	-40.11496
36.1848919391632	-36.91803
36.200511932373	-33.52187
36.2161419391632	-29.66302
36.231761932373	-25.27402
36.2473919391632	-20.42618
36.2630219459534	-15.19423
36.2786419391632	-9.638443
36.2942719459534	-3.8181
36.3098919391632	2.20076
36.3255219459534	8.265823
36.3411519527435	14.13014
36.3567719459534	19.44905
36.3724019527435	23.8181
36.3880219459534	26.86511
36.4036519527435	28.37921
36.4192719459534	28.44586
36.4349019527435	27.47194
36.4505319595337	26.09178
36.4661519527435	24.88274
36.4817819595337	24.08653
36.4974019527435	23.48331
36.5130319595337	22.5038
36.5286519527435	20.50227
36.5442819595337	17.14325
36.5599119663239	12.58269
36.5755319595337	7.34877
36.5911619663239	2.147537
36.6067819595337	-2.406158
36.6224119663239	-5.953598
36.6380319595337	-8.306015
36.6536619663239	-9.345734
36.669291973114	-8.949356
36.6849119663239	-7.073441
36.700541973114	-3.947144
36.7161619663239	-0.1721344
36.731791973114	3.348022
36.7474119663239	5.654892
36.763041973114	6.093857
36.7786719799042	4.520157
36.794291973114	1.261475
36.8099219799042	-3.071518
36.825541973114	-7.906464
36.8411719799042	-12.86336
36.856791973114	-17.8018
36.8724219799042	-22.64716
36.8880519866943	-27.222
36.9036719799042	-31.15943
36.9193019866943	-33.98988
36.9349219799042	-35.35887
36.9505519866943	-35.20038
36.9661719799042	-33.80242
36.9818019866943	-31.67636
36.9974319934845	-29.32867
37.0130519866943	-27.08111
37.0286819934845	-25.07764
37.0443019866943	-23.3126
37.0599319934845	-21.79234
37.0755519866943	-20.64961
37.0911819934845	-20.10976
37.1068120002747	-20.3261
37.1224319934845	-21.25009
37.1380620002747	-22.56361
37.1536819934845	-23.76686
37.1693120002747	-24.39063
37.1849319934845	-24.18253
37.2005620002747	-23.19204
37.2161920070648	-21.6801
37.2318120002747	-19.90587
37.2474420070648	-17.92254
37.2630620002747	-15.50832
37.2786920070648	-12.26466
37.2943120002747	-7.856674
37.3099420070648	-2.2827
37.325572013855	4.035263
37.3411920070648	10.35587
37.356822013855	15.89989
37.3724420070648	20.161
37.388072013855	23.06689
37.4036920070648	24.90614
37.419322013855	26.12078
37.4349520206451	27.04638
37.450572013855	27.78992
37.4662020206451	28.27915
37.481822013855	28.3765
37.4974520206451	27.9856
37.513072013855	27.07749
37.5287020206451	25.64543
37.5443320274353	23.64822
37.5599520206451	21.0489
37.5755820274353	17.89319
37.5912020206451	14.36797
37.6068320274353	10.8188
37.6224520206451	7.588028
37.6380820274353	4.861877
37.6537120342255	2.555573
37.6693320274353	0.347168
37.6849620342255	-2.17453
37.7005820274353	-5.307449
37.7162120342255	-9.153885
37.7318320274353	-13.57835
37.7474620342255	-18.28169
37.7630920410156	-22.87109
37.7787120342255	-26.9071
37.7943420410156	-29.9321
37.8099620342255	-31.56204
37.8255920410156	-31.57338
37.8412120342255	-30.0162
37.8568420410156	-27.26711
37.8724720478058	-23.93724
37.8880920410156	-20.66394
37.9037220478058	-17.89603
37.9193420410156	-15.71797
37.9349720478058	-13.90401
37.9505920410156	-12.09024
37.9662220478058	-10.01225
37.9818520545959	-7.660431
37.9974720478058	-5.261353
38.0131020545959	-3.13623
38.0287220478058	-1.473709
38.0443520545959	-0.2268982
38.0599720478058	0.8752441
38.0756020545959	2.132095
38.0912320613861	3.679077
38.1068520545959	5.416061
38.1224820613861	7.044937
38.1381020545959	8.234543
38.1537320613861	8.783737
38.1693520545959	8.678055
38.1849820613861	8.037201
38.2006120681763	7.05545
38.2162320613861	5.883942
38.2318620681763	4.659927
38.2474820613861	3.539703
38.2631120681763	2.743881
38.2787320613861	2.515625
38.2943620681763	3.066254
38.3099920749664	4.446854
38.3256120681763	6.498154
38.3412420749664	8.843781
38.3568620681763	11.00357
38.3724920749664	12.52043
38.3881120681763	13.12801
38.4037420749664	12.84172
38.4193720817566	11.95728
38.4349920749664	10.95474
38.4506220817566	10.30647
38.4662420749664	10.31563
38.4818720817566	11.00732
38.4975020885468	12.17271
38.5131220817566	13.45181
38.5287520885468	14.46214
38.5443720817566	14.86345
38.5600020885468	14.43922
38.5756220817566	13.12219
38.5912520885468	11.0302
38.6068820953369	8.506622
38.6225020885468	6.084366
38.6381320953369	4.363205
38.6537520885468	3.827057
38.6693820953369	4.689896
38.6850020885468	6.85907
38.7006320953369	10.01962
38.7162621021271	13.78
38.7318820953369	17.81963
38.7475121021271	21.91795
38.7631320953369	25.87445
38.7787621021271	29.46968
38.7943820953369	32.40254
38.8100121021271	34.41068
38.8256421089172	35.43657
38.8412621021271	35.67847
38.8568921089172	35.61975
38.8725121021271	35.89008
38.8881421089172	37.07256
38.9037621021271	39.51996
38.9193921089172	43.25058
38.9350221157074	47.82219
38.9506421089172	52.31145
38.9662721157074	55.44156
38.9818921089172	55.80321
38.9975221157074	52.33443
39.0131421089172	44.77679
39.0287721157074	33.95334
39.0444021224976	21.66866
39.0600221157074	10.20086
39.0756521224976	1.551254
39.0912721157074	-3.219574
39.1069021224976	-4.268402
39.1225221157074	-2.766968
39.1381521224976	-0.2937317
39.1537821292877	1.79335
39.1694021224976	2.8349
39.1850321292877	2.859856
39.2006521224976	2.338409
39.2162821292877	1.752274
39.2319021224976	1.344826
39.2475321292877	1.056778
39.2631621360779	0.6956482
39.2787821292877	0.1623764
39.2944121360779	-0.4489136
39.3100321292877	-0.890358
39.3256621360779	-0.9543114
39.3412821292877	-0.6976929
39.3569121360779	-0.5044899
39.372542142868	-0.9816742
39.3881621360779	-2.732048
39.403792142868	-6.041355
39.4194121360779	-10.80713
39.435042142868	-16.54904
39.4506621360779	-22.62939
39.466292142868	-28.53705
39.4819221496582	-34.02155
39.497542142868	-39.0613
39.5131721496582	-43.6726
39.528792142868	-47.7191
39.5444221496582	-50.82637
39.560042142868	-52.51769
39.5756721496582	-52.43063
39.5913021564484	-50.51741
39.6069221496582	-47.06159
39.6225521564484	-42.51584
39.6381721496582	-37.31132
39.6538021564484	-31.70446
39.6694221496582	-25.80758
39.6850521564484	-19.72196
39.7006819248199	-13.66454
39.7163021564484	-8.008223
39.7319319248199	-3.173225
39.7475521564484	0.5025539
39.7631819248199	2.887894
39.7788021564484	4.102306
39.7944319248199	4.454865
39.8100619316101	4.390572
39.8256819248199	4.42445
39.8413119316101	5.093811
39.8569319248199	6.841373
39.8725619316101	9.968506
39.8881819248199	14.47838
39.9038119316101	20.10086
39.9194419384003	26.25013
39.9350619316101	32.18968
39.9506919384003	37.1899
39.9663119316101	40.72587
39.9819419384003	42.63587
39.9975619316101	43.16796
40.0131919384003	42.90709
40.0288219451904	42.56168
40.0444419384003	42.72983
40.0600719451904	43.6694
40.0756919384003	45.16985
40.0913219451904	46.52487
40.1069419384003	46.70152
40.1225719451904	44.63791
40.1382019519806	39.56297
40.1538219451904	31.29281
40.1694519519806	20.32027
40.1850719451904	7.683922
40.2007019519806	-5.360214
40.2163219451904	-17.72874
40.2319519519806	-28.77412
40.2475819587708	-38.34338
40.2632019519806	-46.62062
40.2788319587708	-53.82385
40.2944519519806	-59.98418
40.3100819587708	-64.86037
40.3257019519806	-68.04095
40.3413319587708	-69.13387
40.3569619655609	-67.97289
40.3725819587708	-64.71115
40.3882119655609	-59.73015
40.4038319587708	-53.54997
40.4194619655609	-46.64029
40.4350819587708	-39.38161
40.4507119655609	-32.04646
40.4663419723511	-24.93866
40.4819619655609	-18.40837
40.4975919723511	-12.82373
40.5132119655609	-8.491577
40.5288419723511	-5.456985
40.5444619655609	-3.487686
40.5600919723511	-2.109436
40.5757219791412	-0.8031921
40.5913419723511	0.7840118
40.6069719791412	2.75946
40.6225919723511	4.993683
40.6382219791412	7.29541
40.6538419723511	9.52356
40.6694719791412	11.65736
40.6851019859314	13.75572
40.7007219791412	15.87509
40.7163519859314	17.98689
40.7319719791412	20.00218
40.7476019859314	21.82622
40.7632219791412	23.41936
40.7788519859314	24.85507
40.7944819927216	26.2744
40.8101019859314	27.8158
40.8257319927216	29.48474
40.8413519859314	31.07117
40.8569819927216	32.15582
40.8726019859314	32.19186
40.8882319927216	30.6369
40.9038619995117	27.15984
40.9194819927216	21.73566
40.9351119995117	14.65857
40.9507319927216	6.414841
40.9663619995117	-2.492767
40.9819819927216	-11.71854
40.9976119995117	-21.12526
41.0132420063019	-30.6834
41.0288619995117	-40.33839
41.0444920063019	-49.8166
41.0601119995117	-58.58562
41.0757420063019	-65.93358
41.0913619995117	-71.15981
41.1069920063019	-73.74791
41.122622013092	-73.56857
41.1382420063019	-70.90326
41.153872013092	-66.35143
41.1694920063019	-60.66119
41.185122013092	-54.5428
41.2007520198822	-48.5323
41.216372013092	-42.95757
41.2320020198822	-37.99411
41.247622013092	-33.74786
41.2632520198822	-30.2903
41.278872013092	-27.63628
41.2945020198822	-25.68559
41.3101320266724	-24.20514
41.3257520198822	-22.87163
41.3413820266724	-21.43703
41.3570020198822	-19.81747
41.3726320266724	-18.16151
41.3882520198822	-16.76952
41.4038820266724	-15.9294
41.4195120334625	-15.73097
41.4351320266724	-15.99463
41.4507620334625	-16.33704
41.4663820266724	-16.3241
41.4820120334625	-15.65982
41.4976320266724	-14.29134
41.5132620334625	-12.4205
41.5288920402527	-10.36169
41.5445120334625	-8.404373
41.5601420402527	-6.691925
41.5757620334625	-5.166458
41.5913920402527	-3.668396
41.6070120334625	-2.020096
41.6226420402527	-0.1478882
41.6382720470428	1.880524
41.6538920402527	3.886627
41.6695220470428	5.660904
41.6851420402527	7.008453
41.7007720470428	7.826675
41.7163920402527	8.084152
41.7320220470428	7.90123
41.747652053833	7.495438
41.7632720470428	7.214172
41.778902053833	7.412048
41.7945220470428	8.320328
41.810152053833	9.884644
41.8257720470428	11.69687
41.841402053833	13.07021
41.8570320606232	13.24345
41.872652053833	11.68079
41.8882820606232	8.29435
41.903902053833	3.515968
41.9195320606232	-1.82325
41.935152053833	-6.726952
41.9507820606232	-10.35589
41.9664120674133	-12.20081
41.9820320606232	-12.17613
41.9976620674133	-10.52811
42.0132820606232	-7.662384
42.0289120674133	-3.9608
42.0445320606232	0.2768784
42.0601620674133	4.860451
42.0757920742035	9.611427
42.0914120674133	14.29846
42.1070420742035	18.66135
42.1226620674133	22.46764
42.1382920742035	25.60794
42.1539120674133	28.1614
42.1695420742035	30.3374
42.1851720809937	32.38024
42.2007920742035	34.43784
42.2164220809937	36.4995
42.2320420742035	38.42986
42.2476720809937	40.04251
42.2632920742035	41.18768
42.2789220809937	41.81559
42.2945520877838	41.9972
42.3101720809937	41.86035
42.3258020877838	41.57661
42.3414220809937	41.24908
42.3570520877838	40.9124
42.3726720809937	40.4679
42.3883020877838	39.72301
42.403932094574	38.43932
42.4195520877838	36.40964
42.435182094574	33.51774
42.4508020877838	29.75412
42.466432094574	25.22605
42.4820520877838	20.10446
42.497682094574	14.60509
42.5133121013641	8.985409
42.528932094574	3.552513
42.5445621013641	-1.374405
42.560182094574	-5.527275
42.5758121013641	-8.753098
42.591432094574	-11.13848
42.6070621013641	-12.91378
42.6226921081543	-14.4338
42.6383121013641	-16.06356
42.6539421081543	-18.10966
42.6695621013641	-20.78728
42.6851921081543	-24.21645
42.7008121013641	-28.41425
42.7164421081543	-33.2091
42.7320721149445	-38.25257
42.7476921081543	-42.98803
42.7633221149445	-46.77497
42.7789421081543	-49.06554
42.7945721149445	-49.54333
42.8101921081543	-48.23319
42.8258221149445	-45.49236
42.8414521217346	-41.8701
42.8570721149445	-37.94968
42.8727021217346	-34.16156
42.8883221149445	-30.68371
42.9039521217346	-27.42595
42.9195721149445	-24.12967
42.9352021217346	-20.52306
42.9508321285248	-16.48614
42.9664521217346	-12.10931
42.9820821285248	-7.648178
42.9977021217346	-3.364967
43.0133321285248	0.5978966
43.0289521217346	4.282494
43.0445821285248	7.857117
43.0602121353149	11.46243
43.0758321285248	15.11816
43.0914621353149	18.65874
43.1070821285248	21.8359
43.1227121353149	24.38697
43.1383321285248	26.16413
43.1539621353149	27.13771
43.1695921421051	27.38654
43.1852121353149	27.02453
43.2008421421051	26.13271
43.2164621353149	24.75212
43.2320921421051	22.89115
43.2477121353149	20.56781
43.2633421421051	17.89155
43.2789721488953	15.03402
43.2945921421051	12.26833
43.3102221488953	9.847561
43.3258421421051	7.881718
43.3414721488953	6.308802
43.3571021556854	4.874432
43.3727221488953	3.24592
43.3883521556854	1.168678
43.4039721488953	-1.463938
43.4196021556854	-4.564978
43.4352221488953	-7.944842
43.4508521556854	-11.37583
43.466481924057	-14.69376
43.4821021556854	-17.82875
43.497731924057	-20.8082
43.5133521556854	-23.75269
43.528981924057	-26.83251
43.5446021556854	-30.23141
43.560231924057	-34.05444
43.5758619308472	-38.27249
43.591481924057	-42.63985
43.6071119308472	-46.70698
43.622731924057	-49.89819
43.6383619308472	-51.62511
43.653981924057	-51.44514
43.6696119308472	-49.17807
43.6852419376373	-45.00453
43.7008619308472	-39.39
43.7164919376373	-33.04469
43.7321119308472	-26.63824
43.7477419376373	-20.67634
43.7633619308472	-15.34126
43.7789919376373	-10.55154
43.7946219444275	-6.073936
43.8102419376373	-1.693611
43.8258719444275	2.662502
43.8414919376373	6.91732
43.8571219444275	10.91432
43.8727419376373	14.52291
43.8883719444275	17.70156
43.9040019512177	20.4685
43.9196219444275	22.8973
43.9352519512177	25.0304
43.9508719444275	26.9037
43.9665019512177	28.53664
43.9821219444275	29.96844
43.9977519512177	31.25416
44.0133819580078	32.46638
44.0290019512177	33.6338
44.0446319580078	34.76456
44.0602519512177	35.83801
44.0758819580078	36.80917
44.0915019512177	37.62475
44.1071319580078	38.21973
44.122761964798	38.53559
44.1383819580078	38.51923
44.154011964798	38.14616
44.1696319580078	37.38196
44.185261964798	36.13863
44.2008819580078	34.24704
44.216511964798	31.46407
44.2321419715881	27.54308
44.247761964798	22.32722
44.2633919715881	15.85381
44.279011964798	8.390152
44.2946419715881	0.4201508
44.310261964798	-7.476616
44.3258919715881	-14.71034
44.3415219783783	-20.7952
44.3571419715881	-25.39256
44.3727719783783	-28.368
44.3883919715881	-29.76865
44.4040219783783	-29.84093
44.4196419715881	-28.97874
44.4352719783783	-27.6599
44.4509019851685	-26.32591
44.4665219783783	-25.29498
44.4821519851685	-24.66435
44.4977719783783	-24.30194
44.5134019851685	-23.86086
44.5290219783783	-22.89491
44.5446519851685	-20.96446
44.5602819919586	-17.80251
44.5759019851685	-13.3864
44.5915319919586	-7.964584
44.6071519851685	-1.963028
44.6227819919586	4.122482
44.6384019851685	9.907944
44.6540319919586	15.18843
44.6696619987488	19.97969
44.6852819919586	24.43445
44.7009119987488	28.70164
44.7165319919586	32.75066
44.7321619987488	36.36205
44.7477819919586	39.14011
44.7634119987488	40.741
44.7790420055389	41.02478
44.7946619987488	40.19402
44.8102920055389	38.69691
44.8259119987488	37.04791
44.8415420055389	35.599
44.8571619987488	34.41145
44.8727920055389	33.28241
44.8884220123291	31.8893
44.9040420055389	30.01114
44.9196720123291	27.6364
44.9352920055389	24.96611
44.9509220123291	22.30899
44.9665420055389	19.93575
44.9821720123291	18.01662
44.9978020191193	16.56918
45.0134220123291	15.50815
45.0290520191193	14.668
45.0446720123291	13.87732
45.0603020191193	12.98331
45.0759220123291	11.93349
45.0915520191193	10.75627
45.1071820259094	9.588593
45.1228020191193	8.567123
45.1384320259094	7.78067
45.1540520191193	7.219849
45.1696820259094	6.792343
45.1853020191193	6.37941
45.2009320259094	5.966003
45.2165620326996	5.676071
45.2321820259094	5.762695
45.2478120326996	6.486877
45.2634320259094	7.954041
45.2790620326996	10.02174
45.2946820259094	12.31334
45.3103120326996	14.35895
45.3259420394897	15.75226
45.3415620326996	16.27887
45.3571920394897	15.95485
45.3728120326996	14.99867
45.3884420394897	13.78551
45.4040620326996	12.80593
45.4196920394897	12.63052
45.4353220462799	13.76413
45.4509420394897	16.48049
45.4665720462799	20.59563
45.4821920394897	25.38194
45.4978220462799	29.63534
45.5134420394897	31.99875
45.5290720462799	31.38507
45.5447020530701	27.32427
45.5603220462799	20.13602
45.5759520530701	10.79224
45.5915720462799	0.6148071
45.6072020530701	-9.074883
45.6228320598602	-17.23209
45.6384520530701	-23.22532
45.6540820598602	-26.83906
45.6697020530701	-28.24818
45.6853320598602	-27.95002
45.7009520530701	-26.60503
45.7165820598602	-24.90667
45.7322120666504	-23.38869
45.7478320598602	-22.29903
45.7634620666504	-21.58928
45.7790820598602	-20.97546
45.7947120666504	-20.14312
45.8103320598602	-18.86782
45.8259620666504	-17.10573
45.8415920734406	-14.94356
45.8572120666504	-12.50824
45.8728420734406	-9.90427
45.8884620666504	-7.184139
45.9040920734406	-4.414852
45.9197120666504	-1.707954
45.9353420734406	0.758934
45.9509720802307	2.816971
45.9665920734406	4.345318
45.9822220802307	5.300129
45.9978420734406	5.690323
46.0134720802307	5.537588
46.0290920734406	4.825891
46.0447220802307	3.515202
46.0603520870209	1.560116
46.0759720802307	-1.027439
46.0916020870209	-4.138519
46.1072220802307	-7.585249
46.1228520870209	-11.13888
46.1384720802307	-14.63761
46.1541020870209	-17.98808
46.169732093811	-21.18242
46.1853520870209	-24.26078
46.200982093811	-27.2213
46.2166020870209	-30.05032
46.232232093811	-32.71926
46.2478520870209	-35.25671
46.263482093811	-37.755
46.2791121006012	-40.32993
46.294732093811	-43.00767
46.3103621006012	-45.60717
46.325982093811	-47.70544
46.3416121006012	-48.71004
46.357232093811	-48.10367
46.3728621006012	-45.66188
46.3884921073914	-41.59091
46.4041121006012	-36.47282
46.4197421073914	-31.05649
46.4353621006012	-26.01458
46.4509921073914	-21.73016
46.4666121006012	-18.27533
46.4822421073914	-15.47153
46.4978721141815	-13.07296
46.5134921073914	-10.84881
46.5291221141815	-8.639627
46.5447421073914	-6.304657
46.5603721141815	-3.723526
46.5759921073914	-0.7772923
46.5916221141815	2.564467
46.6072521209717	6.235271
46.6228721141815	10.07085
46.6385021209717	13.8695
46.6541221141815	17.45386
46.6697521209717	20.71446
46.6853721141815	23.58826
46.7010021209717	26.02556
46.7166321277618	27.97259
46.7322521209717	29.35631
46.7478821277618	30.10046
46.7635021209717	30.15257
46.7791321277618	29.48311
46.7947521209717	28.12583
46.8103821277618	26.17544
46.826012134552	23.77861
46.8416321277618	21.12829
46.857262134552	18.40094
46.8728821277618	15.69194
46.888512134552	13.0021
46.9041321277618	10.2499
46.919762134552	7.334288
46.9353921413422	4.257877
46.951012134552	1.117245
46.9666421413422	-1.919186
46.982262134552	-4.711048
46.9978921413422	-7.21521
47.013512134552	-9.529472
47.0291421413422	-11.82756
47.0447721481323	-14.3094
47.0603921413422	-17.15508
47.0760221481323	-20.4738
47.0916421413422	-24.31311
47.1072721481323	-28.57998
47.1228921413422	-32.98687
47.1385221481323	-37.02869
47.1541521549225	-40.07608
47.1697721481323	-41.54736
47.1854021549225	-41.11894
47.2010221481323	-38.87711
47.2166521549225	-35.2886
47.2322721481323	-31.00664
47.2479021549225	-26.64668
47.2635319232941	-22.60548
47.2791521549225	-19.0341
47.2947819232941	-15.90841
47.3104021549225	-13.13509
47.3260319232941	-10.61978
47.3416521549225	-8.243645
47.3572819232941	-5.844379
47.3729119300842	-3.18919
47.3885319232941	-0.05137634
47.4041619300842	3.695404
47.4197819232941	7.99794
47.4354119300842	12.61985
47.4510319232941	17.2328
47.4666619300842	21.54494
47.4822919368744	25.37788
47.4979119300842	28.70476
47.5135419368744	31.55238
47.5291619300842	33.88768
47.5447919368744	35.59805
47.5604119300842	36.50704
47.5760419368744	36.4959
47.5916719436646	35.59616
47.6072919368744	34.03188
47.6229219436646	32.11254
47.6385419368744	30.0966
47.6541719436646	28.09041
47.6697919368744	26.01818
47.6854219436646	23.76614
47.7010519504547	21.29226
47.7166719436646	18.67318
47.7323019504547	16.05407
47.7479219436646	13.47937
47.7635519504547	10.81229
47.7791719436646	7.804482
47.7948019504547	4.228928
47.8104319572449	0.09187317
47.8260519504547	-4.338272
47.8416819572449	-8.652504
47.8573019504547	-12.48539
47.8729319572449	-15.72879
47.8885519504547	-18.54691
47.9041819572449	-21.28812
47.919811964035	-24.28004
47.9354319572449	-27.68217
47.951061964035	-31.39853
47.9666819572449	-35.08735
47.982311964035	-38.25773
47.9979319572449	-40.37312
48.013561964035	-40.99336
48.0291919708252	-39.90654
48.044811964035	-37.20873
48.0604419708252	-33.28561
48.076061964035	-28.69093
48.0916919708252	-23.99017
48.107311964035	-19.58286
48.1229419708252	-15.6423
48.1385719776154	-12.16895
48.1541919708252	-9.079414
48.1698219776154	-6.333939
48.1854419708252	-3.933365
48.2010719776154	-1.870293
48.2167019844055	-0.08640289
48.2323219776154	1.575256
48.2479519844055	3.316574
48.2635719776154	5.315079
48.2792019844055	7.658081
48.2948219776154	10.32021
48.3104519844055	13.19626
48.3260819911957	16.14888
48.3417019844055	19.04408
48.3573319911957	21.77098
48.3729519844055	24.24712
48.3885819911957	26.39874
48.4042019844055	28.17735
48.4198319911957	29.54701
48.4354619979858	30.51256
48.4510819911957	31.10466
48.4667119979858	31.38615
48.4823319911957	31.44543
48.4979619979858	31.37862
48.5135819911957	31.28149
48.5292119979858	31.20505
48.544842004776	31.13408
48.5604619979858	30.9749
48.576092004776	30.56721
48.5917119979858	29.75499
48.607342004776	28.46214
48.6229619979858	26.72322
48.638592004776	24.66141
48.6542220115662	22.45876
48.669842004776	20.23347
48.6854720115662	18.03954
48.701092004776	15.80797
48.7167220115662	13.40067
48.732342004776	10.59999
48.7479720115662	7.175278
48.7636020183563	2.959839
48.7792220115662	-2.070435
48.7948520183563	-7.670258
48.8104720115662	-13.31787
48.8261020183563	-18.26157
48.8417220115662	-21.77274
48.8573520183563	-23.34314
48.8729820251465	-22.88098
48.8886020183563	-20.71501
48.9042320251465	-17.44093
48.9198520183563	-13.70074
48.9354820251465	-9.969879
48.9511020183563	-6.49794
48.9667320251465	-3.362762
48.9823620319366	-0.5704498
48.9979820251465	1.857483
49.0136120319366	3.884155
49.0292320251465	5.502625
49.0448620319366	6.785034
49.0604820251465	7.903122
49.0761120319366	9.088394
49.0917420387268	10.56087
49.1073620319366	12.47816
49.1229920387268	14.88094
49.1386120319366	17.67926
49.1542420387268	20.69342
49.1698620319366	23.7023
49.1854920387268	26.52142
49.201122045517	29.03261
49.2167420387268	31.18959
49.232372045517	32.97356
49.2479920387268	34.31018
49.263622045517	35.07233
49.2792420387268	35.10381
49.294872045517	34.30188
49.3105020523071	32.7258
49.326122045517	30.64222
49.3417520523071	28.47306
49.357372045517	26.65338
49.3730020523071	25.46075
49.388622045517	24.88597
49.4042520523071	24.59434
49.4198820590973	24.02905
49.4355020523071	22.61228
49.4511320590973	19.95446
49.4667520523071	15.9837
49.4823820590973	10.98322
49.4980020523071	5.441376
49.5136320590973	-0.1350784
49.5292620658875	-5.421417
49.5448820590973	-10.37906
49.5605120658875	-15.17662
49.5761320590973	-20.08786
49.5917620658875	-25.32146
49.6073820590973	-30.93703
49.6230120658875	-36.80085
49.6386420726776	-42.59842
49.6542620658875	-47.8814
49.6698920726776	-52.1279
49.6855120658875	-54.85595
49.7011420726776	-55.76527
49.7167620658875	-54.84732
49.7323920726776	-52.41005
49.7480220794678	-49.02102
49.7636420726776	-45.28537
49.7792720794678	-41.6572
49.7948920726776	-38.31668
49.8105220794678	-35.16934
49.8261420726776	-31.98411
49.8417720794678	-28.56799
49.8574020862579	-24.8684
49.8730220794678	-20.97835
49.8886520862579	-17.009
49.9042720794678	-13.01479
49.9199020862579	-8.953278
49.9355220794678	-4.75219
49.9511520862579	-0.4046555
49.9667820930481	3.921715
49.9824020862579	7.931427
49.9980320930481	11.29971
50.0136520862579	13.82507
50.0292820930481	15.49899
50.0449020862579	16.47953
50.0605320930481	16.97218
50.0761620998383	17.09372
50.0917820930481	16.85895
50.1074120998383	16.23101
50.1230320930481	15.23504
50.1386620998383	14.0232
50.1542820930481	12.82494
50.1699120998383	11.85616
50.1855421066284	11.21223
50.2011620998383	10.83284
50.2167921066284	10.55359
50.2324120998383	10.21746
50.2480421066284	9.698158
50.2636620998383	8.900078
50.2792921066284	7.775478
50.2949221134186	6.269444
50.3105421066284	4.363853
50.3261721134186	2.117626
50.3417921066284	-0.3034363
50.3574221134186	-2.652901
50.3730421066284	-4.704472
50.3886721134186	-6.351009
50.4043021202087	-7.681389
50.4199221134186	-8.957279
50.4355521202087	-10.51787
50.4511721134186	-12.63428
50.4668021202087	-15.41841
50.4824321269989	-18.76891
50.4980521202087	-22.39571
50.5136821269989	-25.84604
50.5293021202087	-28.61575
50.5449321269989	-30.19273
50.5605521202087	-30.20445
50.5761821269989	-28.50867
50.5918121337891	-25.26311
50.6074321269989	-20.90242
50.6230621337891	-16.04478
50.6386821269989	-11.29917
50.6543121337891	-7.113583
50.6699321269989	-3.662319
50.6855621337891	-0.8963089
50.7011921405792	1.364719
50.7168121337891	3.294991
50.7324421405792	5.006756
50.7480621337891	6.565559
50.7636921405792	8.027679
50.7793121337891	9.491756
50.7949421405792	11.0785
50.8105721473694	12.86689
50.8261921405792	14.82895
50.8418221473694	16.77736
50.8574421405792	18.42104
50.8730721473694	19.48766
50.8886921405792	19.84265
50.9043221473694	19.57735
50.9199521541595	18.95976
50.9355721473694	18.33492
50.9512021541595	17.94223
50.9668221473694	17.81137
50.9824521541595	17.75831
50.9980721473694	17.49806
51.0137021541595	16.77057
51.0293319225311	15.4935
51.0449521541595	13.80955
51.0605819225311	12.02674
51.0762021541595	10.47565
51.0918319225311	9.375317
51.1074521541595	8.740967
51.1230819225311	8.391663
51.1387119293213	8.050571
51.1543319225311	7.464691
51.1699619293213	6.520187
51.1855819225311	5.268024
51.2012119293213	3.861118
51.2168319225311	2.461498
51.2324619293213	1.151283
51.2480919361115	-0.09621048
51.2637119293213	-1.373722
51.2793419361115	-2.774345
51.2949619293213	-4.36182
51.3105919361115	-6.181225
51.3262119293213	-8.288357
51.3418419361115	-10.75285
51.3574719429016	-13.58603
51.3730919361115	-16.62134
51.3887219429016	-19.44079
51.4043419361115	-21.42688
51.4199719429016	-21.93823
51.4355919361115	-20.53705
51.4512219429016	-17.21407
51.4668519496918	-12.36749
51.4824719429016	-6.701174
51.4981019496918	-0.9355106
51.5137219429016	4.374996
51.5293519496918	8.958282
51.5449719429016	12.75967
51.5606019496918	15.82738
51.5762319564819	18.20985
51.5918519496918	19.94299
51.6074819564819	21.09116
51.6231019496918	21.79273
51.6387319564819	22.26794
51.6543519496918	22.75332
51.6699819564819	23.43584
51.6856119632721	24.41496
51.7012319564819	25.66514
51.7168619632721	27.04018
51.7324819564819	28.31936
51.7481119632721	29.25727
51.7637319564819	29.65554
51.7793619632721	29.46676
51.7949919700623	28.80263
51.8106119632721	27.91133
51.8262419700623	27.07014
51.8418619632721	26.45026
51.8574919700623	26.03826
51.8731119632721	25.68042
51.8887419700623	25.21413
51.9043719768524	24.59387
51.9199919700623	23.9529
51.9356219768524	23.51431
51.9512419700623	23.40919
51.9668719768524	23.53753
51.9824919700623	23.56243
51.9981219768524	23.05383
52.0137519836426	21.6521
52.0293719768524	19.25954
52.0450019836426	15.99067
52.0606219768524	12.11096
52.0762519836426	7.849548
52.0918719768524	3.338146
52.1075019836426	-1.404041
52.1231319904327	-6.356018
52.1387519836426	-11.45143
52.1543819904327	-16.59538
52.1700019836426	-21.72009
52.1856319904327	-26.83875
52.2012519836426	-32.02903
52.2168819904327	-37.34934
52.2325119972229	-42.71572
52.2481319904327	-47.85175
52.2637619972229	-52.31065
52.2793819904327	-55.61594
52.2950119972229	-57.41366
52.3106319904327	-57.58707
52.3262619972229	-56.34589
52.3418920040131	-54.14339
52.3575119972229	-51.57799
52.3731420040131	-49.19279
52.3887619972229	-47.35686
52.4043920040131	-46.17982
52.4200119972229	-45.57775
52.4356420040131	-45.34315
52.4512720108032	-45.25061
52.4668920040131	-45.10233
52.4825220108032	-44.73613
52.4981420040131	-43.98132
52.5137720108032	-42.71442
52.5293920040131	-40.85547
52.5450220108032	-38.4627
52.5606520175934	-35.73466
52.5762720108032	-32.95133
52.5919020175934	-30.36559
52.6075220108032	-28.10405
52.6231520175934	-26.07912
52.6387720108032	-24.0061
52.6544020175934	-21.47579
52.6700320243835	-18.1152
52.6856520175934	-13.68178
52.7012820243835	-8.169693
52.7169020175934	-1.787552
52.7325320243835	5.112221
52.7481520175934	12.15788
52.7637820243835	19.03497
52.7794120311737	25.5249
52.7950320243835	31.44731
52.8106620311737	36.63827
52.8262820243835	40.91584
52.8419120311737	44.13204
52.8575320243835	46.21283
52.8731620311737	47.20648
52.8887920379639	47.20035
52.9044120311737	46.26518
52.9200420379639	44.35076
52.9356620311737	41.28416
52.9512920379639	36.81622
52.966922044754	30.76048
52.9825420379639	23.10072
52.998172044754	14.07233
53.0137920379639	4.161766
53.029422044754	-5.925591
53.0450420379639	-15.39933
53.060672044754	-23.48245
53.0763020515442	-29.59823
53.091922044754	-33.47471
53.1075520515442	-35.20222
53.123172044754	-35.17255
53.1388020515442	-33.97404
53.154422044754	-32.20169
53.1700520515442	-30.33771
53.1856820583344	-28.69514
53.2013020515442	-27.43198
53.2169320583344	-26.60809
53.2325520515442	-26.20245
53.2481820583344	-26.12505
53.2638020515442	-26.16541
53.2794320583344	-26.00866
53.2950620651245	-25.25559
53.3106820583344	-23.54642
53.3263120651245	-20.67982
53.3419320583344	-16.70447
53.3575620651245	-11.9403
53.3731820583344	-6.870651
53.3888120651245	-2.004101
53.4044420719147	2.322689
53.4200620651245	6.032318
53.4356920719147	9.307487
53.4513120651245	12.48883
53.4669420719147	15.872
53.4825620651245	19.5835
53.4981920719147	23.4916
53.5138220787048	27.31577
53.5294420719147	30.74986
53.5450720787048	33.61048
53.5606920719147	35.90182
53.5763220787048	37.76361
53.5919420719147	39.35653
53.6075720787048	40.73783
53.623202085495	41.85377
53.6388220787048	42.56673
53.654452085495	42.74218
53.6700720787048	42.29182
53.685702085495	41.18235
53.7013220787048	39.37188
53.716952085495	36.77065
53.7325820922852	33.27251
53.748202085495	28.8311
53.7638320922852	23.60571
53.779452085495	18.01477
53.7950820922852	12.70703
53.810702085495	8.347786
53.8263320922852	5.352421
53.8419620990753	3.705078
53.8575820922852	2.948936
53.8732120990753	2.401642
53.8888320922852	1.453831
53.9044620990753	-0.1712036
53.9200820922852	-2.380241
53.9357120990753	-4.839085
53.9513421058655	-7.235218
53.9669620990753	-9.455601
53.9825921058655	-11.60746
53.9982120990753	-13.85939
54.0138421058655	-16.26519
54.0294620990753	-18.65765
54.0450921058655	-20.73629
54.0607221126556	-22.22115
54.0763421058655	-23.03556
54.0919721126556	-23.35572
54.1075921058655	-23.54185
54.1232221126556	-23.95252
54.1388421058655	-24.77905
54.1544721126556	-25.9519
54.1701021194458	-27.18723
54.1857221126556	-28.1041
54.2013521194458	-28.3699
54.2169721126556	-27.7981
54.2326021194458	-26.37534
54.2482221126556	-24.22133
54.2638521194458	-21.54097
54.279482126236	-18.54
54.2951021194458	-15.36721
54.310732126236	-12.08698
54.3263521194458	-8.707184
54.341982126236	-5.232964
54.3576021194458	-1.749889
54.373232126236	1.55003
54.3888621330261	4.357944
54.404482126236	6.331608
54.4201121330261	7.205166
54.435732126236	6.856071
54.4513621330261	5.396492
54.466982126236	3.156471
54.4826121330261	0.6182747
54.4982421398163	-1.690414
54.5138621330261	-3.303551
54.5294921398163	-3.922176
54.5451121330261	-3.512772
54.5607421398163	-2.312397
54.5763621330261	-0.7607498
54.5919921398163	0.6367073
54.6076221466064	1.464031
54.6232421398163	1.537243
54.6388721466064	0.8893242
54.6544921398163	-0.2678185
54.6701221466064	-1.714657
54.6857421398163	-3.290672
54.7013721466064	-4.930679
54.7170021533966	-6.625412
54.7326221466064	-8.341253
54.7482521533966	-9.971394
54.7638721466064	-11.31749
54.7795021533966	-12.17606
54.7951221466064	-12.4324
54.8107521533966	-12.12922
54.8263819217682	-11.48461
54.8420021533966	-10.79535
54.8576319217682	-10.2916
54.8732521533966	-10.02201
54.8888819217682	-9.819962
54.9045021533966	-9.386158
54.9201319217682	-8.466705
54.9357619285583	-6.996141
54.9513819217682	-5.167966
54.9670119285583	-3.332034
54.9826319217682	-1.853431
54.9982619285583	-0.9349232
55.0138819217682	-0.5207038
55.0295119285583	-0.3511059
55.0451419353485	-0.08270478
55.0607619285583	0.5070664
55.0763919353485	1.442575
55.0920119285583	2.49619
55.1076419353485	3.300122
55.1232619285583	3.474244
55.1388919353485	2.770145
55.1545219421387	1.180597
55.1701419353485	-1.029906
55.1857719421387	-3.367692
55.2013919353485	-5.18378
55.2170219421387	-5.846741
55.2326419353485	-4.901346
55.2482719421387	-2.187244
55.2639019489288	2.087755
55.2795219421387	7.403572
55.2951519489288	13.10328
55.3107719421387	18.5523
55.3264019489288	23.32797
55.342031955719	27.26855
55.3576519489288	30.43756
55.373281955719	32.99851
55.3889019489288	35.11427
55.404531955719	36.88717
55.4201519489288	38.32936
55.435781955719	39.4383
55.4514119625092	40.19611
55.467031955719	40.62508
55.4826619625092	40.78844
55.498281955719	40.74661
55.5139119625092	40.5184
55.529531955719	40.04919
55.5451619625092	39.16231
55.5607919692993	37.61503
55.5764119625092	35.18466
55.5920419692993	31.73531
55.6076619625092	27.30224
55.6232919692993	22.08788
55.6389119625092	16.39865
55.6545419692993	10.56917
55.6701719760895	4.89715
55.6857919692993	-0.3985844
55.7014219760895	-5.173527
55.7170419692993	-9.384199
55.7326719760895	-13.09285
55.7482919692993	-16.48954
55.7639219760895	-19.82693
55.7795519828796	-23.34562
55.7951719760895	-27.15613
55.8108019828796	-31.1636
55.8264219760895	-35.10442
55.8420519828796	-38.63361
55.8576719760895	-41.49163
55.8733019828796	-43.61886
55.8889319896698	-45.18362
55.9045519828796	-46.48116
55.9201819896698	-47.8019
55.9358019828796	-49.28741
55.9514319896698	-50.8764
55.9670519828796	-52.29255
55.9826819896698	-53.12802
55.99831199646	-52.93525
56.0139319896698	-51.33412
56.02956199646	-48.07848
56.0451819896698	-43.14786
56.06081199646	-36.75698
56.0764319896698	-29.31876
56.09206199646	-21.3777
56.1076920032501	-13.44967
56.12331199646	-5.89756
56.1389420032501	1.128956
56.15456199646	7.661526
56.1701920032501	13.80387
56.18581199646	19.62626
56.2014420032501	25.07969
56.2170720100403	30.06178
56.2326920032501	34.50055
56.2483220100403	38.43967
56.2639420032501	42.04093
56.2795720100403	45.49058
56.2951920032501	48.82444
56.3108220100403	51.85754
56.3264520168304	54.21844
56.3420720100403	55.54448
56.3577020168304	55.64643
56.3733220100403	54.60953
56.3889520168304	52.74139
56.4045720100403	50.37615
56.4202020168304	47.77173
56.4358320236206	45.02858
56.4514520168304	42.1786
56.4670820236206	39.286
56.4827020168304	36.45204
56.4983320236206	33.77583
56.5139520168304	31.23492
56.5295820236206	28.6575
56.5452120304108	25.75883
56.5608320236206	22.26541
56.5764620304108	18.05051
56.5920820236206	13.19378
56.6077120304108	7.911743
56.6233320236206	2.478745
56.6389620304108	-2.866161
56.6545920372009	-7.931389
56.6702120304108	-12.56305
56.6858420372009	-16.63986
56.7014620304108	-20.10724
56.7170920372009	-22.9948
56.7327120304108	-25.46604
56.7483420372009	-27.78107
56.7639720439911	-30.21283
56.7795920372009	-32.91831
56.7952220439911	-35.83187
56.8108420372009	-38.60939
56.8264720439911	-40.67867
56.8420920372009	-41.39055
56.8577220439911	-40.21353
56.8733520507812	-36.93946
56.8889720439911	-31.73751
56.9046020507812	-25.13443
56.9202220439911	-17.84697
56.9358520507812	-10.63036
56.9514720439911	-4.102308
56.9671020507812	1.344574
56.9827320575714	5.534359
56.9983520507812	8.474461
57.0139820575714	10.28943
57.0296020507812	11.17761
57.0452320575714	11.36842
57.0608520507812	11.13258
57.0764820575714	10.73103
57.0921120643616	10.39425
57.1077320575714	10.2486
57.1233620643616	10.28674
57.1389820575714	10.32848
57.1546120643616	10.08453
57.1702320575714	9.25651
57.1858620643616	7.65304
57.2014920711517	5.247128
57.2171120643616	2.160275
57.2327420711517	-1.431019
57.2483620643616	-5.398901
57.2639920711517	-9.722809
57.2796120643616	-14.45403
57.2952420711517	-19.62726
57.3108720779419	-25.16787
57.3264920711517	-30.87749
57.3421220779419	-36.51144
57.3577420711517	-41.881
57.3733720779419	-46.91388
57.3889920711517	-51.68739
57.4046220779419	-56.35557
57.4202520847321	-61.03349
57.4358720779419	-65.71736
57.4515020847321	-70.28171
57.4671220779419	-74.48424
57.4827520847321	-78.02112
57.4983820915222	-80.58757
57.5140020847321	-81.91846
57.5296320915222	-81.84011
57.5452520847321	-80.32332
57.5608820915222	-77.52489
57.5765020847321	-73.77328
57.5921320915222	-69.52661
57.6077620983124	-65.28574
57.6233820915222	-61.45757
57.6390120983124	-58.25181
57.6546320915222	-55.59289
57.6702620983124	-53.09096
57.6858820915222	-50.15776
57.7015120983124	-46.15254
57.7171421051025	-40.62282
57.7327620983124	-33.47743
57.7483921051025	-25.02466
57.7640120983124	-15.89043
57.7796421051025	-6.780151
57.7952620983124	1.740295
57.8108921051025	9.371185
57.8265221118927	16.10728
57.8421421051025	22.07643
57.8577721118927	27.39146
57.8733921051025	32.05835
57.8890221118927	36.03911
57.9046421051025	39.35512
57.9202721118927	42.22385
57.9359021186829	45.04391
57.9515221118927	48.28586
57.9671521186829	52.2618
57.9827721118927	56.9724
57.9984021186829	62.06256
58.0140221118927	66.93973
58.0296521186829	71.01939
58.045282125473	73.94792
58.0609021186829	75.71138
58.076532125473	76.60158
58.0921521186829	77.06497
58.107782125473	77.49478
58.1234021186829	78.1698
58.139032125473	79.23788
58.1546621322632	80.74448
58.170282125473	82.67931
58.1859121322632	84.94073
58.201532125473	87.34885
58.2171621322632	89.61832
58.232782125473	91.43338
58.2484121322632	92.54117
58.2640421390533	92.83701
58.2796621322632	92.36737
58.2952921390533	91.27713
58.3109121322632	89.66901
58.3265421390533	87.49948
58.3421621322632	84.5397
58.3577921390533	80.4606
58.3734221458435	74.96185
58.3890421390533	67.94547
58.4046721458435	59.58539
58.4202921390533	50.28409
58.4359221458435	40.55615
58.4515421390533	30.87898
58.4671721458435	21.60638
58.4828021526337	12.9825
58.4984221458435	5.192474
58.5140521526337	-1.557098
58.5296721458435	-7.091248
58.5453021526337	-11.31221
58.5609221458435	-14.31807
58.5765521526337	-16.4158
58.5921819210052	-18.0872
58.6078021526337	-19.83583
58.6234319210052	-22.0715
58.6390521526337	-24.96577
58.6546819210052	-28.43881
58.6703021526337	-32.18233
58.6859319210052	-35.7645
58.7015619277954	-38.78288
58.7171819210052	-40.94112
58.7328119277954	-42.10999
58.7484319210052	-42.29381
58.7640619277954	-41.53729
58.7796819210052	-39.85231
58.7953119277954	-37.17326
58.8109419345856	-33.46107
58.8265619277954	-28.79347
58.8421919345856	-23.48642
58.8578119277954	-18.0737
58.8734419345856	-13.20236
58.8890619277954	-9.45755
58.9046919345856	-7.170349
58.9203219413757	-6.337753
58.9359419345856	-6.654785
58.9515719413757	-7.627106
58.9671919345856	-8.760101
58.9828219413757	-9.722519
58.9984419345856	-10.42181
59.0140719413757	-10.95081
59.0297019481659	-11.50278
59.0453219413757	-12.21965
59.0609519481659	-13.13319
59.0765719413757	-14.13443
59.0922019481659	-15.05644
59.1078219413757	-15.71077
59.1234519481659	-15.98964
59.1390819549561	-15.84409
59.1547019481659	-15.3044
59.1703319549561	-14.49455
59.1859519481659	-13.58435
59.2015819549561	-12.82509
59.2172019481659	-12.48743
59.2328319549561	-12.80309
59.2484619617462	-13.85096
59.2640819549561	-15.46754
59.2797119617462	-17.20735
59.2953319549561	-18.3464
59.3109619617462	-18.08023
59.3265819549561	-15.73412
59.3422119617462	-11.03813
59.3578419685364	-4.290977
59.3734619617462	3.667587
59.3890919685364	11.69409
59.4047119617462	18.71412
59.4203419685364	24.0416
59.4359619617462	27.51154
59.4515919685364	29.37797
59.4672219753265	30.09005
59.4828419685364	30.02213
59.4984719753265	29.3662
59.5140919685364	28.15002
59.5297219753265	26.38743
59.5453419685364	24.18221
59.5609719753265	21.75713
59.5766019821167	19.39177
59.5922219753265	17.25407
59.6078519821167	15.36088
59.6234719753265	13.54588
59.6391019821167	11.56406
59.6547219753265	9.182465
59.6703519821167	6.271606
59.6859819889069	2.839973
59.7016019821167	-0.9878998
59.7172319889069	-5.008545
59.7328519821167	-9.012657
59.7484819889069	-12.82591
59.7641019821167	-16.35221
59.7797319889069	-19.53793
59.795361995697	-22.33926
59.8109819889069	-24.68918
59.826611995697	-26.51971
59.8422319889069	-27.8179
59.857861995697	-28.67276
59.8734819889069	-29.33545
59.889111995697	-30.12637
59.9047420024872	-31.32639
59.920361995697	-33.07669
59.9359920024872	-35.29546
59.951611995697	-37.76537
59.9672420024872	-40.24385
59.982861995697	-42.59512
59.9984920024872	-44.83852
60.0141220092773	-47.12309
60.0297420024872	-49.60918
60.0453720092773	-52.37949
60.0609920024872	-55.35291
60.0766220092773	-58.27383
60.0922420024872	-60.74004
60.1078720092773	-62.28472
60.1235020160675	-62.45761
60.1391220092773	-60.93842
60.1547520160675	-57.63575
60.1703720092773	-52.73789
60.1860020160675	-46.6912
60.2016320228577	-40.12534
60.2172520160675	-33.70466
60.2328820228577	-27.97216
60.2485020160675	-23.24478
60.2641320228577	-19.59435
60.2797520160675	-16.86923
60.2953820228577	-14.82251
60.3110120296478	-13.20689
60.3266320228577	-11.83674
60.3422620296478	-10.60538
60.3578820228577	-9.443558
60.3735120296478	-8.291397
60.3891320228577	-7.080261
60.4047620296478	-5.758408
60.420392036438	-4.344498
60.4360120296478	-2.927979
60.451642036438	-1.661057
60.4672620296478	-0.691452
60.482892036438	-0.09368896
60.4985120296478	0.1585846
60.514142036438	0.2090759
60.5297720432281	0.2222443
60.545392036438	0.3161926
60.5610220432281	0.5106659
60.576642036438	0.7307434
60.5922720432281	0.8782043
60.607892036438	0.9207764
60.6235220432281	0.906723
60.6391520500183	0.9410706
60.6547720432281	1.114471
60.6704020500183	1.420456
60.6860220432281	1.784988
60.7016520500183	2.090286
60.7172720432281	2.23584
60.7329020500183	2.190613
60.7485320568085	1.955963
60.7641520500183	1.572357
60.7797820568085	1.084366
60.7954020500183	0.5267792
60.8110320568085	-0.1107178
60.8266520500183	-0.8978882
60.8422820568085	-1.961975
60.8579120635986	-3.422424
60.8735320568085	-5.31308
60.8891620635986	-7.439972
60.9047820568085	-9.354553
60.9204120635986	-10.43094
60.9360320568085	-10.05347
60.9516620635986	-7.848969
60.9672920703888	-3.86615
60.9829120635986	1.424835
60.9985420703888	7.274109
61.0141620635986	12.892
61.0297920703888	17.65948
61.0454120635986	21.28809
61.0610420703888	23.79608
61.076672077179	25.41531
61.0922920703888	26.44992
61.107922077179	27.17929
61.1235420703888	27.79898
61.139172077179	28.40979
61.1547920703888	29.0683
61.170422077179	29.7735
61.1860520839691	30.52536
61.201672077179	31.30826
61.2173020839691	32.07904
61.232922077179	32.7879
61.2485520839691	33.40955
61.264172077179	33.87125
61.2798020839691	34.12793
61.2954320907593	34.13205
61.3110520839691	33.78622
61.3266820907593	33.01636
61.3423020839691	31.7471
61.3579320907593	29.90421
61.3735520839691	27.42526
61.3891820907593	24.33029
61.4048120975494	20.83713
61.4204320907593	17.43906
61.4360620975494	14.78143
61.4516820907593	13.37424
61.4673120975494	13.25781
61.4829320907593	13.86993
61.4985620975494	14.23792
61.5141921043396	13.4599
61.5298120975494	11.1571
61.5454421043396	7.674957
61.5610620975494	3.85968
61.5766921043396	0.5774536
61.5923120975494	-1.731873
61.6079421043396	-3.206116
61.6235721111298	-4.355072
61.6391921043396	-5.703888
61.6548221111298	-7.475861
61.6704421043396	-9.566101
61.6860721111298	-11.6951
61.7016921043396	-13.58292
61.7173221111298	-15.04483
61.7329521179199	-15.93109
61.7485721111298	-16.0361
61.7642021179199	-15.19763
61.7798221111298	-13.33786
61.7954521179199	-10.54089
61.8110721111298	-7.102966
61.8267021179199	-3.412567
61.8423321247101	0.149353
61.8579521179199	3.280731
61.8735821247101	5.808197
61.8892021179199	7.670135
61.9048321247101	8.908142
61.9204521179199	9.671661
61.9360821247101	10.19385
61.9517121315002	10.74313
61.9673321247101	11.54001
61.9829621315002	12.66974
61.9985821247101	14.04834
62.0142121315002	15.46466
62.0298321247101	16.65854
62.0454621315002	17.4075
62.0610921382904	17.60922
62.0767121315002	17.29047
62.0923421382904	16.61194
62.1079621315002	15.79758
62.1235921382904	15.04608
62.1392121315002	14.41949
62.1548421382904	13.81226
62.1704721450806	12.9487
62.1860921382904	11.55066
62.2017221450806	9.495483
62.2173421382904	6.898987
62.2329721450806	4.096436
62.2485921382904	1.467346
62.2642221450806	-0.73703
62.2798521518707	-2.507172
62.2954721450806	-4.020172
62.3111021518707	-5.503448
62.3267221450806	-7.085205
62.3423521518707	-8.708008
62.3579819202423	-10.24033
62.3736021518707	-11.59464
62.3892319202423	-12.82318
62.4048521518707	-14.13556
62.4204819202423	-15.78931
62.4361021518707	-17.9422
62.4517319202423	-20.59631
62.4673619270325	-23.54779
62.4829819202423	-26.43317
62.4986119270325	-28.81006
62.5142319202423	-30.22333
62.5298619270325	-30.2998
62.5454819202423	-28.83191
62.5611119270325	-25.83099
62.5767419338226	-21.55536
62.5923619270325	-16.4364
62.6079919338226	-10.96979
62.6236119270325	-5.59613
62.6392419338226	-0.618103
62.6548619270325	3.793152
62.6704919338226	7.561279
62.6861219406128	10.64636
62.7017419338226	13.00262
62.7173719406128	14.62695
62.7329919338226	15.60565
62.7486219406128	16.12006
62.7642419338226	16.40326
62.7798719406128	16.69714
62.795501947403	17.18982
62.8111219406128	17.98553
62.826751947403	19.06171
62.8423719406128	20.26569
62.858001947403	21.30426
62.8736219406128	21.81543
62.889251947403	21.49677
62.9048819541931	20.24646
62.920501947403	18.224
62.9361319541931	15.84485
62.951751947403	13.60059
62.9673819541931	11.86816
62.983001947403	10.7536
62.9986319541931	10.10486
63.0142619609833	9.615051
63.0298819541931	9.008667
63.0455119609833	8.152466
63.0611319541931	7.061646
63.0767619609833	5.817871
63.0923819541931	4.490356
63.1080119609833	3.089355
63.1236419677734	1.6073
63.1392619609833	0.04949951
63.1548919677734	-1.570129
63.1705119609833	-3.223328
63.1861419677734	-4.894409
63.2017619609833	-6.640747
63.2173919677734	-8.598511
63.2330219745636	-10.91681
63.2486419677734	-13.68866
63.2642719745636	-16.82648
63.2798919677734	-20.00708
63.2955219745636	-22.7041
63.3111419677734	-24.30133
63.3267719745636	-24.2951
63.3424019813538	-22.4726
63.3580219745636	-18.9975
63.3736519813538	-14.37262
63.3892719745636	-9.269531
63.4049019813538	-4.295837
63.4205219745636	0.1733398
63.4361519813538	4.0578
63.4517819881439	7.477539
63.4674019813538	10.60034
63.4830319881439	13.50824
63.4986519813538	16.17212
63.5142819881439	18.48578
63.5299019813538	20.37512
63.5455319881439	21.83679
63.5611619949341	22.97693
63.5767819881439	23.914
63.5924119949341	24.70844
63.6080319881439	25.29034
63.6236619949341	25.54224
63.6392819881439	25.3844
63.6549119949341	24.89557
63.6705420017242	24.27283
63.6861619949341	23.73993
63.7017920017242	23.38751
63.7174119949341	23.11755
63.7330420017242	22.70251
63.7486619949341	21.90961
63.7642920017242	20.64514
63.7799220085144	19.008
63.7955420017242	17.22687
63.8111720085144	15.5415
63.8267920017242	14.10138
63.8424220085144	12.95526
63.8580420017242	12.06165
63.8736720085144	11.36951
63.8893020153046	10.80304
63.9049220085144	10.25616
63.9205520153046	9.55957
63.9361720085144	8.522217
63.9518020153046	7.002197
63.9674220085144	4.974976
63.9830520153046	2.545898
63.9986820220947	-0.1153564
64.0143020153046	-2.827332
64.0299320220947	-5.451843
64.0455520153046	-7.96344
64.0611820220947	-10.41791
64.0768020153046	-12.9408
64.0924320220947	-15.64844
64.1080620288849	-18.55646
64.1236820220947	-21.48688
64.1393120288849	-24.07147
64.1549320220947	-25.76563
64.1705620288849	-26.04608
64.1861820220947	-24.57971
64.2018120288849	-21.39771
64.217442035675	-16.91852
64.2330620288849	-11.82648
64.248692035675	-6.825806
64.2643120288849	-2.404419
64.279942035675	1.261047
64.2955620288849	4.290405
64.311192035675	6.91571
64.3268220424652	9.296936
64.342442035675	11.43188
64.3580720424652	13.18976
64.373692035675	14.45099
64.3893220424652	15.20459
64.404942035675	15.5918
64.4205720424652	15.84131
64.4362020492554	16.14978
64.4518220424652	16.59406
64.4674520492554	17.11725
64.4830720424652	17.58954
64.4987020492554	17.88214
64.5143220424652	17.94196
64.5299520492554	17.80316
64.5455820560455	17.54242
64.5612020492554	17.25378
64.5768320560455	16.97687
64.5924520492554	16.69916
64.6080820560455	16.33759
64.6237120628357	15.80975
64.6393320560455	15.02209
64.6549620628357	13.94861
64.6705820560455	12.61426
64.6862120628357	11.11212
64.7018320560455	9.561401
64.7174620628357	8.075867
64.7330920696259	6.704956
64.7487120628357	5.433044
64.7643420696259	4.179871
64.7799620628357	2.832214
64.7955920696259	1.290222
64.8112120628357	-0.4797363
64.8268420696259	-2.433167
64.842472076416	-4.443787
64.8580920696259	-6.375854
64.873722076416	-8.137268
64.8893420696259	-9.728149
64.904972076416	-11.26361
64.9205920696259	-12.91095
64.936222076416	-14.82275
64.9518520832062	-17.10431
64.967472076416	-19.74884
64.9831020832062	-22.63281
64.998722076416	-25.52997
65.0143520832062	-28.10791
65.029972076416	-29.95093
65.0456020832062	-30.6369
65.0612320899963	-29.82715
65.0768520832062	-27.4173
65.0924820899963	-23.5874
65.1081020832062	-18.81903
65.1237320899963	-13.75012
65.1393520832062	-8.97345
65.1549820899963	-4.852295
65.1706120967865	-1.443298
65.1862320899963	1.416687
65.2018620967865	3.952698
65.2174820899963	6.333313
65.2331120967865	8.573059
65.2487320899963	10.60211
65.2643620967865	12.34277
65.2799921035767	13.81982
65.2956120967865	15.13605
65.3112421035767	16.44232
65.3268620967865	17.81055
65.3424921035767	19.2038
65.3581120967865	20.46875
65.3737421035767	21.43683
65.3893721103668	21.99396
65.4049921035767	22.14771
65.4206221103668	22.01801
65.4362421035767	21.76636
65.4518721103668	21.5332
65.4674921035767	21.34552
65.4831221103668	21.1109
65.498752117157	20.66376
65.5143721103668	19.85132
65.530002117157	18.63733
65.5456221103668	17.14069
65.561252117157	15.61575
65.5768721103668	14.30795
65.592502117157	13.35114
65.6081321239471	12.67377
65.623752117157	12.02182
65.6393821239471	11.06946
65.655002117157	9.556763
65.6706321239471	7.399933
65.686252117157	4.715179
65.7018821239471	1.768219
65.7175121307373	-1.175385
65.7331321239471	-3.911926
65.7487621307373	-6.352783
65.7643821239471	-8.570892
65.7800121307373	-10.69772
65.7956321239471	-12.86838
65.8112621307373	-15.21518
65.8268921375275	-17.84891
65.8425121307373	-20.81638
65.8581421375275	-24.00433
65.8737621307373	-27.01889
65.8893921375275	-29.24005
65.9050121307373	-29.99188
65.9206421375275	-28.8331
65.9362721443176	-25.81897
65.9518921375275	-21.53015
65.9675221443176	-16.84207
65.9831421375275	-12.53152
65.9987721443176	-8.960938
66.0143921375275	-5.990875
66.0300221443176	-3.194794
66.0456521511078	-0.2084656
66.0612721443176	3.025635
66.0769021511078	6.206207
66.0925221443176	8.908447
66.1081521511078	10.85336
66.1237721443176	12.03552
66.1394021511078	12.6824
66.1550319194794	13.12048
66.1706521511078	13.54678
66.1862819194794	14.01959
66.2019021511078	14.51056
66.2175319194794	14.9277
66.2331521511078	15.21436
66.2487819194794	15.39389
66.2644119262695	15.4733
66.2800319194794	15.42194
66.2956619262695	15.15698
66.3112819194794	14.55353
66.3269119262695	13.53143
66.3425319194794	12.10706
66.3581619262695	10.39377
66.3737919330597	8.579926
66.3894119262695	6.852844
66.4050419330597	5.351624
66.4206619262695	4.142181
66.4362919330597	3.237793
66.4519119262695	2.605682
66.4675419330597	2.160492
66.4831719398499	1.768188
66.4987919330597	1.22699
66.5144219398499	0.3527832
66.5300419330597	-0.9599915
66.5456719398499	-2.676483
66.5612919330597	-4.618866
66.5769219398499	-6.565247
66.59255194664	-8.337341
66.6081719398499	-9.859131
66.62380194664	-11.18665
66.6394219398499	-12.44766
66.65505194664	-13.77875
66.6706719398499	-15.30603
66.68630194664	-17.13412
66.7019319534302	-19.31628
66.71755194664	-21.81659
66.7331819534302	-24.4537
66.74880194664	-26.87128
66.7644319534302	-28.58801
66.78005194664	-29.14316
66.7956819534302	-28.26526
66.8113119602203	-25.99451
66.8269319534302	-22.69263
66.8425619602203	-18.89774
66.8581819534302	-15.13611
66.8738119602203	-11.76834
66.8894319534302	-8.930237
66.9050619602203	-6.55896
66.9206919670105	-4.491821
66.9363119602203	-2.565002
66.9519419670105	-0.6875916
66.9675619602203	1.151428
66.9831919670105	2.904053
66.9988119602203	4.506927
67.0144419670105	5.942017
67.0300719738007	7.263611
67.0456919670105	8.557739
67.0613219738007	9.905457
67.0769419670105	11.29037
67.0925719738007	12.57889
67.1081919670105	13.55264
67.1238219738007	14.02417
67.1394519805908	13.9306
67.1550719738007	13.40656
67.1707019805908	12.72586
67.1863219738007	12.1633
67.2019519805908	11.85056
67.2175719738007	11.73038
67.2332019805908	11.60455
67.248831987381	11.28043
67.2644519805908	10.67636
67.280081987381	9.855194
67.2957019805908	8.973816
67.311331987381	8.163666
67.3269619941711	7.433746
67.342581987381	6.648132
67.3582119941711	5.612213
67.373831987381	4.151489
67.3894619941711	2.214569
67.405081987381	-0.1055298
67.4207119941711	-2.60498
67.4363420009613	-5.060577
67.4519619941711	-7.333069
67.4675920009613	-9.42691
67.4832119941711	-11.47949
67.4988420009613	-13.6777
67.5144619941711	-16.17905
67.5300920009613	-19.00775
67.5457220077515	-22.09024
67.5613420009613	-25.27463
67.5769720077515	-28.39536
67.5925920009613	-31.27414
67.6082220077515	-33.69919
67.6238420009613	-35.41095
67.6394720077515	-36.11423
67.6551020145416	-35.58484
67.6707220077515	-33.74884
67.6863520145416	-30.76514
67.7019720077515	-26.95377
67.7176020145416	-22.70905
67.7332220077515	-18.39182
67.7488520145416	-14.21417
67.7644820213318	-10.3064
67.7801020145416	-6.762024
67.7957320213318	-3.670593
67.8113520145416	-1.119934
67.8269820213318	0.7962341
67.8426020145416	2.043671
67.8582320213318	2.720795
67.8738620281219	3.134674
67.8894820213318	3.774994
67.9051120281219	5.124939
67.9207320213318	7.403625
67.9363620281219	10.36914
67.9519820213318	13.33344
67.9676120281219	15.46332
67.9832420349121	16.17715
67.9988620281219	15.46967
68.0144920349121	13.88382
68.0301120281219	12.24026
68.0457420349121	11.17429
68.0613620281219	10.84854
68.0769920349121	10.94431
68.0926220417023	10.93253
68.1082420349121	10.44019
68.1238720417023	9.436035
68.1394920349121	8.198212
68.1551220417023	7.061279
68.1707420349121	6.227722
68.1863720417023	5.628448
68.2020020484924	5.051559
68.2176220417023	4.256165
68.2332520484924	3.080597
68.2488720417023	1.546234
68.2645020484924	-0.164566
68.2801220417023	-1.826721
68.2957520484924	-3.267273
68.3113820552826	-4.46199
68.3270020484924	-5.567657
68.3426320552826	-6.805923
68.3582520484924	-8.343933
68.3738820552826	-10.20538
68.3895020484924	-12.24911
68.4051320552826	-14.248
68.4207620620728	-16.05708
68.4363820552826	-17.69476
68.4520120620728	-19.20984
68.4676320552826	-20.63525
68.4832620620728	-21.7822
68.4988820552826	-22.24478
68.5145120620728	-21.59099
68.5301420688629	-19.62744
68.5457620620728	-16.6147
68.5613920688629	-13.1367
68.5770120620728	-9.768555
68.5926420688629	-6.723206
68.6082620620728	-3.776321
68.6238920688629	-0.5020294
68.6395220756531	3.316605
68.6551420688629	7.405975
68.6707720756531	11.07845
68.6863920688629	13.61771
68.7020220756531	14.71611
68.7176420688629	14.65787
68.7332720756531	14.14377
68.7489020824432	13.85155
68.7645220756531	14.10698
68.7801520824432	14.78563
68.7957720756531	15.52748
68.8114020824432	16.04947
68.8270220756531	16.30322
68.8426520824432	16.42828
68.8582820892334	16.56537
68.8739020824432	16.70229
68.8895320892334	16.66196
68.9051520824432	16.26482
68.9207820892334	15.41959
68.9364020824432	14.15997
68.9520320892334	12.66055
68.9676620960236	11.08699
68.9832820892334	9.58226
68.9989120960236	8.223679
69.0145320892334	7.04068
69.0301620960236	6.054611
69.0457820892334	5.220276
69.0614120960236	4.38562
69.0770421028137	3.307602
69.0926620960236	1.80188
69.1082921028137	-0.08459473
69.1239120960236	-1.993912
69.1395421028137	-3.377884
69.1551620960236	-3.786377
69.1707921028137	-3.188202
69.1864221096039	-2.069733
69.2020421028137	-1.266815
69.2176721096039	-1.546967
69.2332921028137	-3.241211
69.2489221096039	-6.122772
69.2645421028137	-9.576508
69.2801721096039	-12.94582
69.295802116394	-15.79507
69.3114221096039	-17.97061
69.327052116394	-19.45039
69.3426721096039	-20.18234
69.358302116394	-20.00826
69.3739221096039	-18.77548
69.389552116394	-16.51373
69.4051821231842	-13.51866
69.420802116394	-10.29533
69.4364321231842	-7.329681
69.452052116394	-4.926102
69.4676821231842	-3.127701
69.4833121299744	-1.735687
69.4989321231842	-0.4915619
69.5145621299744	0.7795563
69.5301821231842	2.088303
69.5458121299744	3.299942
69.5614321231842	4.237732
69.5770621299744	4.825378
69.5926921367645	5.098801
69.6083121299744	5.198074
69.6239421367645	5.273361
69.6395621299744	5.402237
69.6551921367645	5.570007
69.6708121299744	5.717407
69.6864421367645	5.79071
69.7020721435547	5.75827
69.7176921367645	5.611145
69.7333221435547	5.337189
69.7489421367645	4.916626
69.7645721435547	4.3461
69.7801921367645	3.671249
69.7958221435547	2.981064
69.8114521503448	2.36853
69.8270721435547	1.890579
69.8427021503448	1.518188
69.8583221435547	1.147461
69.8739521503448	0.6571198
69.8895721435547	-0.03178406
69.9052021503448	-0.9287415
69.920832157135	-1.97757
69.9364521503448	-3.097595
69.952082157135	-4.214111
69.9677021503448	-5.273499
69.983332157135	-6.251038
69.9989521503448	-7.1586
70.014582157135	-8.031982
70.0302119255066	-8.942581
70.045832157135	-9.979507
70.0614619255066	-11.25066
70.077082157135	-12.82718
70.0927119255066	-14.68823
70.108332157135	-16.67265
70.1239619255066	-18.45265
70.1395919322968	-19.59329
70.1552119255066	-19.69696
70.1708419322968	-18.51178
70.1864619255066	-16.06494
70.2020919322968	-12.64035
70.2177119255066	-8.700027
70.2333419322968	-4.730698
70.2489719390869	-1.08989
70.2645919322968	2.048752
70.2802219390869	4.680313
70.2958419322968	6.876114
70.3114719390869	8.691254
70.3270919322968	10.13727
70.3427219390869	11.19417
70.3583519458771	11.8399
70.3739719390869	12.11684
70.3896019458771	12.12122
70.4052219390869	11.99051
70.4208519458771	11.86873
70.4364719390869	11.85156
70.4521019458771	11.981
70.4677319526672	12.20782
70.4833519458771	12.4482
70.4989819526672	12.57245
70.5146019458771	12.48395
70.5302319526672	12.12077
70.5458519458771	11.4821
70.5614819526672	10.60902
70.5771119594574	9.570404
70.5927319526672	8.441147
70.6083619594574	7.273651
70.6239819526672	6.098877
70.6396119594574	4.944351
70.6552319526672	3.820389
70.6708619594574	2.746994
70.6864919662476	1.739075
70.7021119594574	0.8174438
70.7177419662476	-0.02627563
70.7333619594574	-0.8143616
70.7489919662476	-1.633835
70.7646119594574	-2.571091
70.7802419662476	-3.733322
70.7958719730377	-5.17012
70.8114919662476	-6.887115
70.8271219730377	-8.816132
70.8427419662476	-10.83374
70.8583719730377	-12.7746
70.8739919662476	-14.41402
70.8896219730377	-15.49681
70.9052519798279	-15.75337
70.9208719730377	-14.97945
70.9365019798279	-13.12263
70.9521219730377	-10.34052
70.9677519798279	-6.964615
70.9833719730377	-3.413742
70.9990019798279	-0.05651855
71.014631986618	2.901184
71.0302519798279	5.405319
71.045881986618	7.491257
71.0615019798279	9.182388
71.077131986618	10.43135
71.0927519798279	11.16698
71.108381986618	11.40372
71.1240119934082	11.30312
71.139631986618	11.17461
71.1552619934082	11.33498
71.170881986618	11.96153
71.1865119934082	12.96513
71.202131986618	14.02409
71.2177619934082	14.7001
71.2333920001984	14.69499
71.2490119934082	13.93021
71.2646420001984	12.60889
71.2802619934082	11.05586
71.2958920001984	9.595383
71.3115119934082	8.405182
71.3271420001984	7.42215
71.3427720069885	6.478516
71.3583920001984	5.338058
71.3740220069885	3.84082
71.3896420001984	1.999634
71.4052720069885	-0.03091431
71.4208920001984	-2.090302
71.4365220069885	-4.134308
71.4521520137787	-6.259567
71.4677720069885	-8.569214
71.4834020137787	-11.02293
71.4990220069885	-13.39693
71.5146520137787	-15.41682
71.5302720069885	-17.00475
71.5459020137787	-18.40393
71.5615320205688	-20.06067
71.5771520137787	-22.27769
71.5927820205688	-24.88791
71.6084020137787	-27.18918
71.6240320205688	-28.24576
71.6396520137787	-27.39082
71.6552820205688	-24.64307
71.670912027359	-20.68172
71.6865320205688	-16.47989
71.702162027359	-12.77304
71.7177820205688	-9.767334
71.733412027359	-7.20784
71.7490320205688	-4.720703
71.764662027359	-2.151718
71.7802920341492	0.3164978
71.795912027359	2.368958
71.8115420341492	3.806351
71.827162027359	4.671616
71.8427920341492	5.264862
71.8584220409393	5.928513
71.8740420341492	6.867142
71.8896720409393	8.062927
71.9052920341492	9.320511
71.9209220409393	10.40073
71.9365420341492	11.09447
71.9521720409393	11.25471
71.9678020477295	10.7933
71.9834220409393	9.731979
71.9990520477295	8.26889
72.0146720409393	6.799042
72.0303020477295	5.773605
72.0459220409393	5.477371
72.0615520477295	5.798737
72.0771820545197	6.205246
72.0928020477295	6.010803
72.1084320545197	4.731842
72.1240520477295	2.386993
72.1396820545197	-0.464035
72.1553020477295	-3.0569
72.1709320545197	-4.844681
72.1865620613098	-5.798126
72.2021820545197	-6.368393
72.2178120613098	-7.213135
72.2334320545197	-8.802185
72.2490620613098	-11.20622
72.2646820545197	-14.1032
72.2803120613098	-16.99538
72.2959420681	-19.42305
72.3115620613098	-21.08643
72.3271920681	-21.81892
72.3428120613098	-21.54465
72.3584420681	-20.31216
72.3740620613098	-18.21988
72.3896920681	-15.44859
72.4053220748901	-12.24951
72.4209420681	-8.857559
72.4365720748901	-5.488693
72.4521920681	-2.279663
72.4678220748901	0.6895142
72.4834420681	3.352524
72.4990720748901	5.648056
72.5147020816803	7.533295
72.5303220748901	9.014572
72.5459520816803	10.17567
72.5615720748901	11.15173
72.5772020816803	12.08438
72.5928220748901	13.05721
72.6084520816803	14.02196
72.6240820884705	14.8488
72.6397020816803	15.38565
