onset	BVP
1.56782603263855	23.90173
1.58345603942871	24.19363
1.59908604621887	24.74881
1.61470603942871	25.54889
1.63033604621887	26.52029
1.64595603942871	27.53702
1.66158604621887	28.46936
1.67721605300903	29.23892
1.69283604621887	29.84216
1.70846605300903	30.35663
1.72408604621887	30.9278
1.73971605300903	31.70087
1.75533604621887	32.74677
1.77096605300903	34.00723
1.78659605979919	35.29858
1.80221605300903	36.35776
1.81784605979919	36.95709
1.83346605300903	36.9787
1.84909605979919	36.42389
1.86471605300903	35.35901
1.88034605979919	33.85089
1.89597606658936	31.84662
1.91159605979919	29.19919
1.92722606658936	25.73422
1.94284605979919	21.36594
1.95847606658936	16.20432
1.97409605979919	10.5817
1.98972606658936	5.000824
2.00535607337952	-0.05636597
2.02097606658936	-4.227325
2.03660607337952	-7.398987
2.05222606658936	-9.668945
2.06785607337952	-11.31369
2.08347606658936	-12.66852
2.09910607337952	-14.01752
2.11473608016968	-15.51639
2.13035607337952	-17.14334
2.14598608016968	-18.76257
2.16160607337952	-20.20654
2.17723608016968	-21.37317
2.19285607337952	-22.20239
2.20848608016968	-22.62253
2.22411608695984	-22.44183
2.23973608016968	-21.41617
2.25536608695984	-19.35666
2.27098608016968	-16.3562
2.28661608695984	-12.87357
2.30223608016968	-9.635834
2.31786608695984	-7.359955
2.33349609375	-6.464325
2.34911608695984	-6.921387
2.36474609375	-8.388031
2.38036608695984	-10.34421
2.39599609375	-12.26923
2.41161608695984	-13.62462
2.42724609375	-13.77704
2.44287610054016	-12.03925
2.45849609375	-7.898987
2.47412610054016	-1.335678
2.48974609375	6.967117
2.50537610054016	15.68005
2.52099609375	23.24612
2.53662610054016	28.39102
2.55225610733032	30.51283
2.56787610054016	29.75664
2.58350610733032	26.743
2.59912610054016	22.21204
2.61475610733032	16.70464
2.63037610054016	10.55904
2.64600610733032	4.00972
2.66163611412048	-2.608521
2.67725610733032	-8.825272
2.69288611412048	-14.10863
2.70850610733032	-18.07352
2.72413611412048	-20.64923
2.73975610733032	-22.14018
2.75538611412048	-23.13622
2.78663611412048	-26.0014
2.80226612091064	-28.37279
2.81788611412048	-31.1189
2.83351612091064	-33.80904
2.84913611412048	-36.045
2.86476612091064	-37.63463
2.88039612770081	-38.56712
2.89601612091064	-38.94373
2.91164612770081	-38.8154
2.92726612091064	-38.10509
2.94289612770081	-36.62639
2.95851612091064	-34.22946
2.97414612770081	-30.92407
2.98977613449097	-26.96788
3.00539612770081	-22.85658
3.02102613449097	-19.17691
3.03664612770081	-16.46118
3.05227613449097	-15.00908
3.06789612770081	-14.80672
3.08352613449097	-15.55823
3.09915614128113	-16.72374
3.11477613449097	-17.69279
3.13040614128113	-17.89247
3.14602613449097	-16.96806
3.16165614128113	-14.85016
3.17727613449097	-11.78349
3.19290614128113	-8.204666
3.20853614807129	-4.606628
3.22415614128113	-1.420349
3.23978614807129	1.094528
3.25540614128113	2.845184
3.27103614807129	3.842567
3.28665614128113	4.186462
3.30228614807129	4.038918
3.31791615486145	3.639908
3.33353614807129	3.310303
3.34916615486145	3.372284
3.36478614807129	4.054916
3.38041615486145	5.376472
3.39603614807129	7.131363
3.41166615486145	8.985252
3.42729616165161	10.58942
3.44291615486145	11.73651
3.45854616165161	12.34094
3.47416615486145	12.37276
3.48979616165161	11.72821
3.50541615486145	10.23936
3.52104616165161	7.711029
3.53667593002319	4.105164
3.55229616165161	-0.357605
3.56792593002319	-5.204056
3.58354616165161	-9.885956
3.59917593002319	-13.9437
3.61479616165161	-17.16403
3.63042593002319	-19.53893
3.64605593681335	-21.15336
3.66167593002319	-22.05878
3.67730593681335	-22.27198
3.69292593002319	-21.80491
3.70855593681335	-20.76285
3.72417593002319	-19.39112
3.73980593681335	-17.98202
3.75543594360352	-16.76461
3.77105593681335	-15.83951
3.78668594360352	-15.17644
3.80230593681335	-14.70524
3.81793594360352	-14.41737
3.84918594360352	-14.6199
3.86481595039368	-15.17244
3.88043594360352	-15.93932
3.89606595039368	-16.7236
3.91168594360352	-17.31345
3.92731595039368	-17.54903
3.94293594360352	-17.37778
3.95856595039368	-16.86221
3.97419595718384	-16.14934
3.98981595039368	-15.37114
4.00544595718384	-14.58752
4.02106595039368	-13.76987
4.03669595718384	-12.80478
4.05231595039368	-11.58267
4.06794595718384	-10.0833
4.083575963974	-8.43158
4.09919595718384	-6.848129
4.114825963974	-5.54361
4.13044595718384	-4.602951
4.146075963974	-3.919739
4.16169595718384	-3.267151
4.177325963974	-2.431976
4.19295597076416	-1.341171
4.208575963974	-0.1197815
4.22420597076416	1.014877
4.239825963974	1.849319
4.25545597076416	2.307999
4.27108597755432	2.430481
4.28670597076416	2.374542
4.30233597755432	2.315048
4.31795597076416	2.427963
4.33358597755432	2.871841
4.34920597076416	3.822784
4.36483597755432	5.466187
4.38046598434448	7.896317
4.39608597755432	11.04805
4.41171598434448	14.62535
4.42733597755432	18.19128
4.44296598434448	21.31161
4.45858597755432	23.71796
4.47421598434448	25.35013
4.48984599113464	26.34085
4.50546598434448	26.85176
4.52109599113464	26.9502
4.53671598434448	26.59117
4.55234599113464	25.70786
4.56796598434448	24.34283
4.58359599113464	22.69586
4.5992259979248	21.09836
4.61484599113464	19.82176
4.6304759979248	18.97836
4.64609599113464	18.43097
4.6617259979248	17.90437
4.67734599113464	17.12021
4.6929759979248	15.94218
4.70860600471497	14.41914
4.7242259979248	12.71786
4.73985600471497	11.043
4.7554759979248	9.504517
4.77110600471497	8.107422
4.7867259979248	6.756516
4.80235600471497	5.346832
4.81798601150513	3.84549
4.83360600471497	2.309311
4.84923601150513	0.8799438
4.86485600471497	-0.2921295
4.88048601150513	-1.148727
4.89610600471497	-1.750443
4.91173601150513	-2.302628
4.92736601829529	-3.047607
4.94298601150513	-4.193497
4.95861601829529	-5.846741
4.97423601150513	-8.03064
4.98986601829529	-10.70432
5.00548601150513	-13.82962
5.02111601829529	-17.32001
5.03674602508545	-21.03951
5.06799602508545	-28.1503
5.08361601829529	-30.92761
5.09924602508545	-32.88301
5.11486601829529	-33.94655
5.13049602508545	-34.15302
5.14612603187561	-33.54865
5.16174602508545	-32.11188
5.17737603187561	-29.77531
5.19299602508545	-26.53513
5.20862603187561	-22.55861
5.22424602508545	-18.20282
5.23987603187561	-13.94427
5.25550603866577	-10.16632
5.27112603187561	-6.994202
5.28675603866577	-4.257889
5.30237603187561	-1.537918
5.31800603866577	1.613541
5.33362603187561	5.45517
5.34925603866577	9.940735
5.36488604545593	14.74496
5.38050603866577	19.37419
5.39613604545593	23.39732
5.41175603866577	26.57062
5.42738604545593	28.88982
5.44300603866577	30.54814
5.45863604545593	31.79889
5.47426605224609	32.85765
5.48988604545593	33.82979
5.50551605224609	34.74748
5.52113604545593	35.60794
5.53676605224609	36.41743
5.55238604545593	37.18631
5.56801605224609	37.82242
5.58364605903625	38.16299
5.59926605224609	37.95007
5.61489605903625	37.00131
5.63051605224609	35.2951
5.64614605903625	33.03075
5.66176605224609	30.50909
5.67739605903625	28.05052
5.69302606582642	25.82285
5.70864605903625	23.81354
5.72427606582642	21.93982
5.73989605903625	20.08485
5.75552606582642	18.24564
5.77114605903625	16.54402
5.78677606582642	15.13467
5.80240607261658	14.13914
5.81802606582642	13.59711
5.83365607261658	13.4622
5.84927606582642	13.65953
5.86490607261658	14.10291
5.88052606582642	14.67857
5.89615607261658	15.22371
5.91178607940674	15.51228
5.92740607261658	15.25745
5.94303607940674	14.22865
5.95865607261658	12.326
5.97428607940674	9.680786
5.98990607261658	6.593948
6.00553607940674	3.432617
6.0211660861969	0.4941864
6.03678607940674	-2.11113
6.0524160861969	-4.423965
6.06803607940674	-6.571182
6.0836660861969	-8.638016
6.09928607940674	-10.59863
6.1149160861969	-12.31796
6.13054609298706	-13.63835
6.1461660861969	-14.44281
6.16179609298706	-14.67816
6.1774160861969	-14.35374
6.19304609298706	-13.51588
6.2086660861969	-12.22371
6.22429609298706	-10.55426
6.23992609977722	-8.624985
6.25554609298706	-6.605347
6.27117609977722	-4.657028
6.28679609298706	-2.887955
6.30242609977722	-1.315842
6.31804609298706	0.125885
6.33367609977722	1.522766
6.34930610656738	2.879509
6.36492609977722	4.079773
6.38055610656738	4.881706
6.39617609977722	5.049561
6.41180610656738	4.489105
6.42742609977722	3.371704
6.44305610656738	2.154991
6.45868611335754	1.416641
6.47430610656738	1.631897
6.48993611335754	2.977058
6.50555610656738	5.277275
6.52118611335754	8.073845
6.53681612014771	10.87992
6.55243611335754	13.36255
6.56806612014771	15.40797
6.58368611335754	17.06141
6.59931612014771	18.34031
6.61493611335754	19.09163
6.63056612014771	19.0397
6.64619612693787	17.92385
6.66181612014771	15.65196
6.67744612693787	12.43766
6.69306612014771	8.779861
6.70869612693787	5.300385
6.72431612014771	2.560635
6.73994612693787	0.9169731
6.75557613372803	0.3648262
6.77119612693787	0.5232239
6.78682613372803	0.6959038
6.80244612693787	-0.04319382
6.81807613372803	-2.574375
6.83369612693787	-7.429462
6.84932613372803	-14.52605
6.86495614051819	-23.10004
6.88057613372803	-31.8757
6.89620614051819	-39.49595
6.91182613372803	-44.99005
6.92745614051819	-48.08843
6.94307613372803	-49.28564
6.95870614051819	-49.56886
6.97433614730835	-50.07752
6.98995614051819	-51.73794
7.00558614730835	-55.02643
7.02120614051819	-59.91772
7.03683614730835	-65.9272
7.05245614051819	-72.30662
7.06808614730835	-78.25264
7.08371615409851	-83.13394
7.09933614730835	-86.56352
7.11496615409851	-88.39434
7.13058614730835	-88.52978
7.14621615409851	-86.78561
7.16183614730835	-82.866
7.17746615409851	-76.5802
7.19309616088867	-68.0827
7.20871615409851	-58.05041
7.22434616088867	-47.62016
7.23996615409851	-37.97338
7.25559616088867	-29.9621
7.27121615409851	-23.88502
7.28684616088867	-19.50306
7.30247592926025	-16.30259
7.31809616088867	-13.72522
7.33372592926025	-11.27184
7.34934616088867	-8.453697
7.36497592926025	-4.832226
7.38059616088867	-0.06109238
7.39622592926025	5.888229
7.41185593605042	12.57026
7.42747592926025	19.1105
7.44310593605042	24.43446
7.45872592926025	27.64445
7.47435593605042	28.2818
7.48997592926025	26.43314
7.50560593605042	22.59251
7.52123594284058	17.47426
7.53685593605042	11.84106
7.55248594284058	6.421516
7.56810593605042	1.890854
7.58373594284058	-1.178238
7.59935593605042	-2.377487
7.61498594284058	-1.620903
7.63061594963074	0.7812729
7.64623594284058	4.146042
7.66186594963074	7.580681
7.67748594284058	10.20374
7.69311594963074	11.39647
7.70873594284058	10.9433
7.72436594963074	9.031021
7.7399959564209	6.14241
7.75561594963074	2.873383
7.7712459564209	-0.2541046
7.78686594963074	-2.886841
7.8024959564209	-4.905243
7.81811594963074	-6.368027
7.8337459564209	-7.417374
7.84937596321106	-8.152924
7.8649959564209	-8.521759
7.88062596321106	-8.334656
7.8962459564209	-7.327759
7.91187596321106	-5.358444
7.9274959564209	-2.491806
7.94312596321106	0.9307251
7.95875597000122	4.402023
7.97437596321106	7.432129
7.99000597000122	9.69075
8.00562596321106	11.09328
8.02125597000122	11.71895
8.03687596321106	11.74391
8.05250597000122	11.29701
8.06813597679138	10.49408
8.08375597000122	9.442795
8.09938597679138	8.335297
8.11500597000122	7.449387
8.13063597679138	7.110489
8.14625597000122	7.580994
8.16188597679138	8.970703
8.17751598358154	11.18507
8.19313597679138	13.93449
8.20876598358154	16.85556
8.22438597679138	19.5733
8.24001598358154	21.8334
8.25563597679138	23.5033
8.27126598358154	24.5593
8.2868959903717	25.04736
8.30251598358154	25.03946
8.3181459903717	24.60748
8.33376598358154	23.81284
8.3493959903717	22.73303
8.36501598358154	21.42221
8.3806459903717	19.95367
8.39627599716187	18.38763
8.4118959903717	16.78656
8.42752599716187	15.16415
8.4431459903717	13.54108
8.45877599716187	11.88214
8.4743959903717	10.11411
8.49002599716187	8.151611
8.50565600395203	5.94873
8.52127599716187	3.578796
8.53690600395203	1.321533
8.55252599716187	-0.3967285
8.56815600395203	-1.135712
8.58377599716187	-0.6147156
8.59940600395203	1.141876
8.61503601074219	3.781616
8.63065600395203	6.767181
8.64628601074219	9.545685
8.66190600395203	11.76535
8.67753601074219	13.35629
8.69315600395203	14.45468
8.70878601074219	15.29492
8.72441601753235	16.03787
8.74003601074219	16.6857
8.75566601753235	17.1221
8.77128601074219	17.19235
8.78691601753235	16.77753
8.80253601074219	15.87915
8.81816601753235	14.6134
8.83379602432251	13.16769
8.84941601753235	11.76172
8.86504602432251	10.56146
8.88066601753235	9.664764
8.89629602432251	9.080841
8.91191601753235	8.781006
8.92754602432251	8.645355
8.94317603111267	8.537933
8.95879602432251	8.280945
8.97442603111267	7.703796
8.99004602432251	6.697052
9.00567603111267	5.261444
9.02129602432251	3.514191
9.03692603111267	1.657104
9.05255603790283	-0.1169739
9.06817603111267	-1.727478
9.08380603790283	-3.23111
9.09942603111267	-4.770935
9.11505603790283	-6.480957
9.13068604469299	-8.32373
9.14630603790283	-10.06558
9.16193604469299	-11.29282
9.17755603790283	-11.57571
9.19318604469299	-10.63983
9.20880603790283	-8.498413
9.22443604469299	-5.431793
9.24006605148315	-1.944122
9.25568604469299	1.431854
9.27131605148315	4.282593
9.28693604469299	6.420929
9.30256605148315	7.883942
9.31818604469299	8.886169
9.33381605148315	9.677521
9.34944605827332	10.48367
9.36506605148315	11.44016
9.38069605827332	12.53915
9.39631605148315	13.66037
9.41194605827332	14.61414
9.42756605148315	15.19989
9.44319605827332	15.23428
9.45882606506348	14.59225
9.47444605827332	13.20749
9.49007606506348	11.12793
9.50569605827332	8.512665
9.52132606506348	5.615753
9.53694605827332	2.777466
9.55257606506348	0.3101196
9.56820607185364	-1.557526
9.58382606506348	-2.766937
9.59945607185364	-3.4133
9.61507606506348	-3.69458
9.63070607185364	-3.791107
9.64632606506348	-3.812042
9.66195607185364	-3.748291
9.6775860786438	-3.520966
9.69320607185364	-3.088074
9.7088360786438	-2.475861
9.72445607185364	-1.815674
9.7400860786438	-1.292084
9.75570607185364	-1.066223
9.7713360786438	-1.187042
9.78696608543396	-1.545898
9.8025860786438	-1.864624
9.81821608543396	-1.742249
9.8338360786438	-0.8265381
9.84946608543396	1.052032
9.8650860786438	3.751801
9.88071608543396	6.809052
9.89634609222412	9.606659
9.91196608543396	11.60428
9.92759609222412	12.56107
9.94321608543396	12.6322
9.95884609222412	12.27795
9.97446608543396	12.01221
9.99009609222412	12.16605
10.0057260990143	12.79935
10.0213460922241	13.72995
10.0369760990143	14.70059
10.0525960922241	15.53983
10.0682260990143	16.23883
10.0838460922241	16.88571
10.0994760990143	17.59189
10.1151061058044	18.40646
10.1307260990143	19.27609
10.1463561058044	20.09415
10.1619760990143	20.76056
10.1932260990143	21.55328
10.2088561058044	21.82468
10.2244861125946	22.16071
10.2401061058044	22.63449
10.2557361125946	23.23648
10.2713561058044	23.84644
10.2869861125946	24.29861
10.3026061058044	24.42514
10.3182361125946	24.13016
10.3338661193848	23.37256
10.3494861125946	22.15601
10.3651161193848	20.48041
10.3807361125946	18.35468
10.3963661193848	15.81967
10.4119861125946	12.99075
10.4276161193848	10.06064
10.4432461261749	7.254028
10.4588661193848	4.77005
10.4744961261749	2.728119
10.4901161193848	1.178345
10.5057461261749	0.1147156
10.5213661193848	-0.488678
10.5369961261749	-0.654541
10.5526261329651	-0.4712524
10.5682461261749	-0.1069031
10.5838761329651	0.1768646
10.5994961261749	0.05575562
10.6151261329651	-0.7844391
10.6307461261749	-2.558456
10.6463761329651	-5.345352
10.6620061397552	-9.04512
10.6776261329651	-13.39679
10.6932561397552	-18.03644
10.7088761329651	-22.54797
10.7245061397552	-26.53383
10.7401261329651	-29.64528
10.7557561397552	-31.61447
10.7713861465454	-32.27162
10.7870061397552	-31.61765
10.8026361465454	-29.87996
10.8182561397552	-27.49875
10.8338861465454	-25.05286
10.8495061397552	-23.06062
10.8651361465454	-21.83972
10.8807661533356	-21.45694
10.8963861465454	-21.81502
10.9120161533356	-22.77832
10.9276361465454	-24.30898
10.9432661533356	-26.41086
10.9588861465454	-28.99747
10.9745161533356	-31.78044
10.9901461601257	-34.243
11.0057661533356	-35.81345
11.0213961601257	-36.10197
11.0370161533356	-35.04419
11.0526461601257	-32.90262
11.0682661533356	-30.13068
11.0838961601257	-27.18782
11.0995259284973	-24.38373
11.1151461601257	-21.84221
11.1307759284973	-19.53308
11.1463961601257	-17.36061
11.1620259284973	-15.263
11.1776461601257	-13.23068
11.1932759284973	-11.32414
11.2089059352875	-9.665634
11.2245259284973	-8.418427
11.2401559352875	-7.697113
11.2557759284973	-7.47934
11.2714059352875	-7.484406
11.2870259284973	-7.184769
11.3026559352875	-6.00975
11.3182859420776	-3.608826
11.3339059352875	-0.1274109
11.3495359420776	3.747726
11.3651559352875	7.00563
11.3807859420776	8.733612
11.3964159488678	8.458099
11.4120359420776	6.327332
11.4276659488678	3.056747
11.4432859420776	-0.3756104
11.4589159488678	-2.968994
11.4745359420776	-3.931732
11.4901659488678	-2.753723
11.505795955658	0.6670685
11.5214159488678	6.020859
11.537045955658	12.50594
11.5526659488678	18.97914
11.568295955658	24.24977
11.5839159488678	27.42671
11.599545955658	28.17719
11.6151759624481	26.74037
11.630795955658	23.77608
11.6464259624481	20.03519
11.662045955658	16.22476
11.6776759624481	12.90392
11.693295955658	10.49944
11.7089259624481	9.30603
11.7245559692383	9.350922
11.7401759624481	10.25157
11.7558059692383	11.17091
11.7714259624481	10.98697
11.7870559692383	8.677231
11.8026759624481	3.818344
11.8183059692383	-3.063843
11.8339359760284	-10.47028
11.8495559692383	-16.34909
11.8651859760284	-18.84143
11.8808059692383	-17.04326
11.8964359760284	-11.44908
11.9120559692383	-3.866714
11.9276859760284	3.289597
11.9433159828186	7.889771
11.9589359760284	8.888992
11.9745659828186	6.563965
11.9901859760284	2.257263
12.0058159828186	-2.377151
12.0214359760284	-6.038864
12.0370659828186	-8.150146
12.0526959896088	-8.767639
12.0683159828186	-8.224274
12.0839459896088	-6.766861
12.0995659828186	-4.471924
12.1151959896088	-1.36377
12.1308159828186	2.4021
12.1464459896088	6.397675
12.1620759963989	10.02072
12.1776959896088	12.70479
12.1933259963989	14.11923
12.2089459896088	14.26265
12.2245759963989	13.39778
12.2401959896088	11.86827
12.2558259963989	9.929962
12.2714560031891	7.676331
12.2870759963989	5.033295
12.3027060031891	1.867294
12.3183259963989	-1.8405
12.3339560031891	-5.877655
12.3495759963989	-9.735718
12.3652060031891	-12.69571
12.3808360099792	-14.0625
12.3964560031891	-13.42818
12.4120860099792	-10.87292
12.4277060031891	-6.968979
12.4433360099792	-2.600922
12.4589560031891	1.334396
12.4745860099792	4.144562
12.4902160167694	5.5168
12.5058360099792	5.51387
12.5214660167694	4.484833
12.5370860099792	2.928543
12.5527160167694	1.369659
12.5683360099792	0.2203674
12.5839660167694	-0.2988129
12.5995960235596	-0.1804047
12.6152160167694	0.3980865
12.6308460235596	1.157471
12.6464660167694	1.810547
12.6620960235596	2.099106
12.6777160167694	1.853302
12.6933460235596	0.9720764
12.7089760303497	-0.5711365
12.7245960235596	-2.716476
12.7402260303497	-5.31395
12.7558460235596	-8.136307
12.7714760303497	-10.88084
12.7870960235596	-13.20396
12.8027260303497	-14.78781
12.8183560371399	-15.35413
12.8339760303497	-14.73276
12.8496060371399	-12.93492
12.8652260303497	-10.19472
12.8808560371399	-6.975983
12.8964760303497	-3.854935
12.9121060371399	-1.384094
12.9277360439301	0.1271057
12.9433560371399	0.6941681
12.9589860439301	0.6533813
12.9746060371399	0.5234375
12.9902360439301	0.7655945
13.0058560371399	1.606201
13.0214860439301	2.958221
13.0371160507202	4.498505
13.0527360439301	5.831635
13.0683660507202	6.693909
13.0839860439301	7.005554
13.0996160507202	6.853622
13.1152360439301	6.393997
13.1308660507202	5.747925
13.1464960575104	4.97435
13.1621160507202	4.097366
13.1777460575104	3.171585
13.1933660507202	2.303497
13.2089960575104	1.642639
13.2246160507202	1.303741
13.2402460575104	1.312515
13.2558760643005	1.593033
13.2714960575104	2.029129
13.2871260643005	2.498688
13.3027460575104	2.942154
13.3183760643005	3.359482
13.3339960575104	3.757507
13.3496260643005	4.134079
13.3652560710907	4.43306
13.3808760643005	4.57724
13.3965060710907	4.512115
13.4121260643005	4.249466
13.4277560710907	3.880814
13.4433760643005	3.553955
13.4590060710907	3.406265
13.4746360778809	3.49498
13.4902560710907	3.800034
13.5058860778809	4.224121
13.5215060710907	4.673859
13.5371360778809	5.088348
13.5527560710907	5.451279
13.5683860778809	5.772598
13.584016084671	6.075928
13.5996360778809	6.375641
13.615266084671	6.704803
13.6308860778809	7.168884
13.646516084671	7.892456
13.6621460914612	8.972229
13.677766084671	10.40588
13.6933960914612	11.99962
13.709016084671	13.42239
13.7246460914612	14.30486
13.740266084671	14.36911
13.7558960914612	13.55086
13.7715260982513	12.05792
13.7871460914612	10.24185
13.8027760982513	8.472687
13.8183960914612	7.003983
13.8340260982513	5.886017
13.8496460914612	5.003372
13.8652760982513	4.134598
13.8809061050415	3.052856
13.8965260982513	1.562164
13.9121561050415	-0.4340515
13.9277760982513	-2.966995
13.9434061050415	-5.979446
13.9590260982513	-9.33371
13.9746561050415	-12.81464
13.9902861118317	-16.13947
14.0059061050415	-18.99248
14.0215361118317	-21.07343
14.0371561050415	-22.15047
14.0527861118317	-22.13264
14.0684061050415	-21.09729
14.0840361118317	-19.26048
14.0996661186218	-16.93066
14.1152861118317	-14.45714
14.1309161186218	-12.10707
14.1465361118317	-10.07233
14.1621661186218	-8.459869
14.1777861118317	-7.296005
14.1934161186218	-6.538376
14.209046125412	-6.08165
14.2246661186218	-5.757889
14.240296125412	-5.399078
14.2559161186218	-4.927094
14.271546125412	-4.363281
14.2871661186218	-3.852432
14.302796125412	-3.527039
14.3184261322021	-3.40065
14.334046125412	-3.301254
14.3496761322021	-2.9133
14.365296125412	-1.952011
14.3809261322021	-0.311615
14.396546125412	1.827301
14.4121761322021	4.100525
14.4278061389923	6.095001
14.4434261322021	7.543533
14.4590561389923	8.384888
14.4746761322021	8.71936
14.4903061389923	8.711411
14.5059261322021	8.4814
14.5215561389923	8.044754
14.5371861457825	7.355194
14.5528061389923	6.341843
14.5684361457825	4.97699
14.5840561389923	3.298996
14.5996861457825	1.415619
14.6153061389923	-0.5549927
14.6309361457825	-2.487473
14.6465661525726	-4.316452
14.6621861457825	-6.038788
14.6778161525726	-7.698883
14.6934361457825	-9.356033
14.7090661525726	-11.00879
14.7246861457825	-12.54926
14.7403161525726	-13.74094
14.7559461593628	-14.26355
14.7715661525726	-13.81418
14.7871961593628	-12.24359
14.8028161525726	-9.638428
14.8184461593628	-6.359619
14.8340661525726	-2.943192
14.8496961593628	0.0617218
14.8653259277344	2.266602
14.8809461593628	3.584061
14.8965759277344	4.221802
14.9121961593628	4.598114
14.9278259277344	5.101471
14.9434461593628	5.948486
14.9590759277344	7.071548
14.9747059345245	8.177223
14.9903259277344	8.914322
15.0059559345245	9.062561
15.0215759277344	8.680771
15.0372059345245	8.100311
15.0528259277344	7.772919
15.0684559345245	8.002487
15.0840859413147	8.7528
15.0997059345245	9.608688
15.1153359413147	9.953667
15.1309559345245	9.35215
15.1465859413147	7.759399
15.1622059345245	5.619896
15.1778359413147	3.623184
15.1934659481049	2.320763
15.2090859413147	1.865646
15.2247159481049	1.927551
15.2403359413147	1.896477
15.2559659481049	1.179138
15.2715859413147	-0.5433655
15.2872159481049	-3.370888
15.302845954895	-7.250206
15.3184659481049	-11.9872
15.334095954895	-17.0829
15.3497159481049	-21.52637
15.365345954895	-23.92153
15.3809659481049	-23.03522
15.396595954895	-18.48004
15.4122259616852	-11.20452
15.427845954895	-3.372261
15.4434759616852	2.482948
15.459095954895	4.530968
15.4747259616852	2.429131
15.490345954895	-2.632637
15.5059759616852	-8.621979
15.5216059684753	-13.63548
15.5372259616852	-16.54012
15.5528559684753	-17.07655
15.5684759616852	-15.51163
15.5841059684753	-12.18414
15.5997259616852	-7.306297
15.6153559684753	-1.150345
15.6309859752655	5.73423
15.6466059684753	12.42183
15.6622359752655	17.80428
15.6778559684753	20.98685
15.6934859752655	21.58709
15.7091059684753	19.91109
15.7247359752655	16.83852
15.7403659820557	13.55833
15.7559859752655	11.12113
15.7716159820557	10.21098
15.7872359752655	10.9185
15.8028659820557	12.80025
15.8184859752655	15.11166
15.8341159820557	17.04572
15.8497459888458	18.08731
15.8653659820557	18.16417
15.8809959888458	17.58263
15.8966159820557	16.81153
15.9122459888458	16.23819
15.9278659820557	15.99887
15.9434959888458	15.93292
15.959125995636	15.73058
15.9747459888458	15.00401
15.990375995636	13.35317
16.0059959888458	10.41203
16.021625995636	5.841141
16.0372459888458	-0.5089493
16.052875995636	-8.390099
16.0685060024261	-17.03844
16.084125995636	-25.23529
16.0997560024261	-31.59278
16.115375995636	-35.02148
16.1310060024261	-35.09885
16.146625995636	-32.19615
16.1622560024261	-27.37172
16.1778860092163	-21.97959
16.1935060024261	-17.24739
16.2091360092163	-13.97856
16.2247560024261	-12.4131
16.2403860092163	-12.24558
16.2560160160065	-12.82665
16.2716360092163	-13.33415
16.2872660160065	-12.98158
16.3028860092163	-11.25954
16.3185160160065	-8.038528
16.3341360092163	-3.644028
16.3497660160065	1.267578
16.3653960227966	5.901604
16.3810160160065	9.566765
16.3966460227966	11.86378
16.4122660160065	12.71024
16.4278960227966	12.35492
16.4435160160065	11.19839
16.4591460227966	9.675507
16.4747760295868	8.17942
16.4903960227966	6.989433
16.5060260295868	6.246033
16.5216460227966	5.912651
16.5372760295868	5.821793
16.5528960227966	5.731667
16.5685260295868	5.441917
16.584156036377	4.87458
16.5997760295868	4.114868
16.615406036377	3.355057
16.6310260295868	2.768082
16.646656036377	2.439499
16.6622760295868	2.292564
16.677906036377	2.176056
16.6935360431671	1.924675
16.709156036377	1.463959
16.7247860431671	0.7845535
16.740406036377	-0.02315521
16.7560360431671	-0.8693619
16.771656036377	-1.67263
16.7872860431671	-2.349152
16.8029160499573	-2.821091
16.8185360431671	-3.006592
16.8341660499573	-2.890213
16.8497860431671	-2.526825
16.8654160499573	-2.088829
16.8810360431671	-1.768745
16.8966660499573	-1.712387
16.9122960567474	-1.97728
16.9279160499573	-2.479935
16.9435460567474	-3.078491
16.9591660499573	-3.633408
16.9747960567474	-4.084862
16.9904160499573	-4.42025
17.0060460567474	-4.62471
17.0216760635376	-4.621391
17.0372960567474	-4.25219
17.0529260635376	-3.365715
17.0685460567474	-1.906731
17.0841760635376	-0.04136658
17.0997960567474	1.880493
17.1154260635376	3.416924
17.1310560703278	4.206734
17.1466760635376	4.153992
17.1623060703278	3.452438
17.1779260635376	2.541702
17.1935560703278	1.885139
17.2091760635376	1.792633
17.2248060703278	2.272224
17.2404360771179	3.11396
17.2560560703278	3.995422
17.2716860771179	4.689186
17.2873060703278	5.159378
17.3029360771179	5.545029
17.3185560703278	6.04142
17.3341860771179	6.728966
17.3498160839081	7.523308
17.3654360771179	8.183083
17.3810660839081	8.450905
17.3966860771179	8.174362
17.4123160839081	7.342377
17.4279360771179	6.059143
17.4435660839081	4.434029
17.4591960906982	2.554802
17.4748160839081	0.4451294
17.4904460906982	-1.850807
17.5060660839081	-4.234383
17.5216960906982	-6.563492
17.5373160839081	-8.680504
17.5529460906982	-10.4624
17.5685760974884	-11.86205
17.5841960906982	-12.89742
17.5998260974884	-13.62698
17.6154460906982	-14.10663
17.6310760974884	-14.35764
17.6466960906982	-14.37084
17.6623260974884	-14.12811
17.6779561042786	-13.61736
17.6935760974884	-12.84905
17.7092061042786	-11.92035
17.7248260974884	-11.00282
17.7404561042786	-10.31824
17.7560760974884	-10.09351
17.7717061042786	-10.44093
17.7873361110687	-11.28517
17.8029561042786	-12.32343
17.8185861110687	-13.08218
17.8342061042786	-13.07483
17.8498361110687	-11.98835
17.8654561042786	-9.806793
17.8810861110687	-6.831917
17.8967161178589	-3.556732
17.9123361110687	-0.4666519
17.9279661178589	2.130653
17.9435861110687	4.133263
17.9592161178589	5.595032
17.9748361110687	6.566299
17.9904661178589	7.033104
18.006096124649	6.982117
18.0217161178589	6.499786
18.037346124649	5.828522
18.0529661178589	5.341278
18.068596124649	5.392387
18.0842161178589	6.112137
18.099846124649	7.329834
18.1154761314392	8.655579
18.131096124649	9.657257
18.1467261314392	10.0694
18.162346124649	9.885132
18.1779761314392	9.290596
18.193596124649	8.533119
18.2092261314392	7.786926
18.2248561382294	7.064705
18.2404761314392	6.266464
18.2561061382294	5.285782
18.2717261314392	4.105614
18.2873561382294	2.828178
18.3029761314392	1.632835
18.3186061382294	0.6907349
18.3342361450195	0.0803299
18.3498561382294	-0.2394791
18.3654861450195	-0.4056549
18.3811061382294	-0.5782394
18.3967361450195	-0.8640976
18.4123561382294	-1.33239
18.4279861450195	-2.006355
18.4436161518097	-2.925468
18.4592361450195	-4.120544
18.4748661518097	-5.577797
18.4904861450195	-7.17495
18.5061161518097	-8.646133
18.5217461585999	-9.61393
18.5373661518097	-9.710991
18.5529961585999	-8.728851
18.5686161518097	-6.713814
18.5842461585999	-3.929428
18.5998661518097	-0.8021088
18.6154961585999	2.260262
18.63112616539	4.97007
18.6467461585999	7.200836
18.66237616539	8.968712
18.6779961585999	10.32103
18.69362616539	11.26865
18.7092461585999	11.77063
18.72487616539	11.78754
18.7405059337616	11.29343
18.75612616539	10.33462
18.7717559337616	9.039597
18.78737616539	7.57711
18.8030059337616	6.153244
18.81862616539	4.941589
18.8342559337616	4.064537
18.8498859405518	3.578522
18.8655059337616	3.475021
18.8811359405518	3.68
18.8967559337616	4.117027
18.9123859405518	4.671204
18.9280059337616	5.236855
18.9436359405518	5.679512
18.9592659473419	5.847816
18.9748859405518	5.595016
18.9905159473419	4.824272
19.0061359405518	3.533043
19.0217659473419	1.858528
19.0373859405518	0.0705719
19.0530159473419	-1.50882
19.0686459541321	-2.589684
19.0842659473419	-3.029739
19.0998959541321	-2.889198
19.1155159473419	-2.428909
19.1311459541321	-2.04261
19.1467659473419	-2.118385
19.1623959541321	-2.836403
19.1780259609222	-4.058624
19.1936459541321	-5.328705
19.2092759609222	-6.01918
19.2248959541321	-5.546936
19.2405259609222	-3.621864
19.2561459541321	-0.3634949
19.2717759609222	3.740738
19.2874059677124	8.024055
19.3030259609222	11.85801
19.3186559677124	14.82604
19.3342759609222	16.75135
19.3499059677124	17.66692
19.3655259609222	17.73096
19.3811559677124	17.14211
19.3967859745026	16.13818
19.4124059677124	14.99942
19.4280359745026	13.99136
19.4436559677124	13.31316
19.4592859745026	13.017
19.4749059677124	12.96085
19.4905359745026	12.84867
19.5061659812927	12.34592
19.5217859745026	11.20398
19.5374159812927	9.376225
19.5530359745026	7.020061
19.5686659812927	4.390751
19.5842859745026	1.760143
19.5999159812927	-0.7244987
19.6155459880829	-3.054596
19.6311659812927	-5.295448
19.6467959880829	-7.52319
19.6624159812927	-9.739918
19.6780459880829	-11.86911
19.6936659812927	-13.77671
19.7092959880829	-15.35774
19.724925994873	-16.54263
19.7405459880829	-17.35847
19.756175994873	-17.89207
19.7717959880829	-18.28983
19.787425994873	-18.70749
19.8030459880829	-19.27155
19.818675994873	-20.03974
19.8343060016632	-20.89666
19.849925994873	-21.57272
19.8655560016632	-21.62871
19.881175994873	-20.63378
19.8968060016632	-18.36379
19.912425994873	-14.91912
19.9280560016632	-10.78117
19.9436860084534	-6.632168
19.9593060016632	-3.13661
19.9749360084534	-0.6720161
19.9905560016632	0.7268066
20.0061860084534	1.3563
20.0218060016632	1.622866
20.0374360084534	1.847889
20.0530660152435	2.189415
20.0686860084534	2.601301
20.0843160152435	2.963049
20.0999360084534	3.162186
20.1155660152435	3.145748
20.1311860084534	2.934759
20.1468160152435	2.613802
20.1624460220337	2.288202
20.1780660152435	2.078323
20.1936960220337	2.066208
20.2093160152435	2.266047
20.2249460220337	2.606867
20.2405660152435	2.988949
20.2561960220337	3.320024
20.2718260288239	3.584618
20.2874460220337	3.825539
20.3030760288239	4.100348
20.3186960220337	4.414333
20.3343260288239	4.695874
20.3499460220337	4.799192
20.3655760288239	4.596049
20.381206035614	4.025637
20.3968260288239	3.101812
20.412456035614	1.871616
20.4280760288239	0.3202534
20.443706035614	-1.648502
20.4593260288239	-4.205208
20.474956035614	-7.514769
20.4905860424042	-11.71679
20.506206035614	-16.83287
20.5218360424042	-22.73847
20.537456035614	-29.11198
20.5530860424042	-35.3692
20.568706035614	-40.7041
20.5843360424042	-44.21552
20.5999660491943	-45.19781
20.6155860424042	-43.43582
20.6312160491943	-39.39788
20.6468360424042	-34.15614
20.6624660491943	-29.0605
20.6780960559845	-25.23258
20.6937160491943	-23.16556
20.7093460559845	-22.60852
20.7249660491943	-22.83282
20.7405960559845	-23.11064
20.7562160491943	-23.11789
20.7718460559845	-23.0704
20.7874760627747	-23.53267
20.8030960559845	-24.98256
20.8187260627747	-27.46401
20.8343460559845	-30.512
20.8499760627747	-33.36946
20.8655960559845	-35.33066
20.8812260627747	-35.93405
20.8968560695648	-34.95249
20.9124760627747	-32.27324
20.9281060695648	-27.91887
20.9437260627747	-22.25182
20.9593560695648	-16.2041
20.9749760627747	-11.19495
20.9906060695648	-8.572021
21.006236076355	-8.876122
21.0218560695648	-11.29525
21.037486076355	-13.87722
21.0531060695648	-14.40731
21.068736076355	-11.56651
21.0843560695648	-5.61644
21.099986076355	1.773575
21.1156160831451	8.476685
21.131236076355	13.00823
21.1468660831451	15.12524
21.162486076355	15.6582
21.1781160831451	15.70258
21.193736076355	15.87707
21.2093660831451	16.0329
21.2249960899353	15.53948
21.2406160831451	13.83627
21.2562460899353	10.90482
21.2718660831451	7.30336
21.2874960899353	3.878372
21.3031160831451	1.354065
21.3187460899353	0.01998901
21.3343760967255	-0.2577972
21.3499960899353	0.1694336
21.3656260967255	1.032089
21.3812460899353	2.303467
21.3968760967255	4.179413
21.4124960899353	6.87677
21.4281260967255	10.40755
21.4437561035156	14.50188
21.4593760967255	18.67299
21.4750061035156	22.43912
21.4906260967255	25.55818
21.5062561035156	28.08475
21.5218760967255	30.30342
21.5375061035156	32.5182
21.5531361103058	34.89619
21.5687561035156	37.41212
21.5843861103058	39.92033
21.6000061035156	42.27354
21.6156361103058	44.42032
21.6312561035156	46.42015
21.6468861103058	48.40457
21.6625161170959	50.48647
21.6781361103058	52.71495
21.6937661170959	54.98904
21.7093861103058	57.07588
21.7250161170959	58.60667
21.7406361103058	59.19038
21.7562661170959	58.55441
21.7718961238861	56.5925
21.7875161170959	53.43906
21.8031461238861	49.4326
21.8187661170959	45.00482
21.8343961238861	40.50966
21.8500161170959	36.14282
21.8656461238861	31.89325
21.8812761306763	27.57553
21.8968961238861	22.94109
21.9125261306763	17.73155
21.9281461238861	11.80049
21.9437761306763	5.245789
21.9593961238861	-1.530579
21.9750261306763	-7.89209
21.9906561374664	-13.13319
22.0062761306763	-16.70444
22.0219061374664	-18.41383
22.0375261306763	-18.47536
22.0531561374664	-17.39186
22.0687761306763	-15.68884
22.0844061374664	-13.69046
22.1000361442566	-11.40695
22.1156561374664	-8.598343
22.1312861442566	-4.970047
22.1469061374664	-0.3884125
22.1625361442566	4.974991
22.1781561374664	10.64674
22.1937861442566	15.963
22.2094161510468	20.29417
22.2250361442566	23.17625
22.2406661510468	24.38501
22.2562861442566	23.92387
22.2719161510468	21.92099
22.2875361442566	18.51654
22.3031661510468	13.85431
22.3187961578369	8.134644
22.3344161510468	1.679977
22.3500461578369	-5.016434
22.3656661510468	-11.38329
22.3812961578369	-16.94485
22.3969161510468	-21.42259
22.4125461578369	-24.79501
22.4281761646271	-27.25233
22.4437961578369	-28.99512
22.4594261646271	-30.06822
22.4750461578369	-30.31386
22.4906761646271	-29.45383
22.5062961578369	-27.26385
22.5219261646271	-23.76315
22.5375559329987	-19.2798
22.5531761646271	-14.38232
22.5688059329987	-9.722916
22.5844261646271	-5.833389
22.6000559329987	-3.022537
22.6156761646271	-1.326401
22.6313059329987	-0.5847778
22.6469359397888	-0.5743866
22.6625559329987	-1.059891
22.6781859397888	-1.865585
22.6938059329987	-2.851471
22.7094359397888	-3.906204
22.7250559329987	-4.906342
22.7406859397888	-5.701202
22.756315946579	-6.144974
22.7719359397888	-6.086655
22.787565946579	-5.441971
22.8031859397888	-4.149872
22.818815946579	-2.208252
22.8344359397888	0.2960968
22.850065946579	3.158211
22.8656959533691	6.014038
22.881315946579	8.408821
22.8969459533691	9.923164
22.912565946579	10.38853
22.9281959533691	10.0205
22.943815946579	9.460205
22.9594459533691	9.578323
22.9750759601593	11.11273
22.9906959533691	14.30859
23.0063259601593	18.74514
23.0219459533691	23.42514
23.0375759601593	27.16616
23.0531959533691	29.1329
23.0688259601593	29.21098
23.0844559669495	28.11967
23.1000759601593	27.07168
23.1157059669495	27.27086
23.1313259601593	29.25503
23.1469559669495	32.6073
23.1625759601593	36.08923
23.1782059669495	38.19086
23.1938359737396	37.83377
23.2094559669495	34.78532
23.2250859737396	29.70781
23.2407059669495	23.70429
23.2563359737396	18.00806
23.2719559669495	13.85182
23.2875859737396	12.53333
23.3032159805298	15.40423
23.3188359737396	23.26096
23.3344659805298	35.3875
23.3500859737396	48.89954
23.3657159805298	59.1518
23.3813459873199	61.36953
23.3969659805298	52.81834
23.4125959873199	34.27966
23.4282159805298	9.865498
23.4438459873199	-14.85424
23.4594659805298	-35.34142
23.4750959873199	-49.75973
23.4907259941101	-59.02348
23.5063459873199	-65.34377
23.5219759941101	-70.44108
23.5375959873199	-74.61269
23.5532259941101	-77.02597
23.5688459873199	-76.87028
23.5844759941101	-74.30406
23.6001060009003	-70.64448
23.6157259941101	-67.55499
23.6313560009003	-66.06555
23.6469759941101	-65.9705
23.6626060009003	-65.98492
23.6782259941101	-64.48868
23.6938560009003	-60.42251
23.7094860076904	-53.8876
23.7251060009003	-46.03373
23.7407360076904	-38.61546
23.7563560009003	-33.12629
23.7719860076904	-30.16777
23.7876060009003	-29.28355
23.8032360076904	-29.24689
23.8188660144806	-28.67201
23.8344860076904	-26.64394
23.8501160144806	-23.10237
23.8657360076904	-18.73431
23.8813660144806	-14.56712
23.8969860076904	-11.41221
23.9126160144806	-9.497007
23.9282460212708	-8.450273
23.9438660144806	-7.556581
23.9594960212708	-6.153246
23.9751160144806	-3.928026
23.9907460212708	-1.020984
24.0063660144806	2.120985
24.0219960212708	4.935452
24.0376260280609	6.92259
24.0532460212708	7.774412
24.0688760280609	7.33806
24.0844960212708	5.638254
24.1001260280609	2.87892
24.1157460212708	-0.5369601
24.1313760280609	-4.015681
24.1470060348511	-6.906335
24.1626260280609	-8.64038
24.1782560348511	-8.855922
24.1938760280609	-7.35365
24.2095060348511	-4.143682
24.2251260280609	0.5963964
24.2407560348511	6.509521
24.2563860416412	13.04017
24.2720060348511	19.52625
24.2876360416412	25.33541
24.3032560348511	30.00636
24.3188860416412	33.40452
24.3345060348511	35.71824
24.3501360416412	37.29947
24.3657660484314	38.49873
24.3813860416412	39.55261
24.3970160484314	40.51509
24.4126360416412	41.37775
24.4282660484314	42.1318
24.4438860416412	42.82384
24.4595160484314	43.57641
24.4751460552216	44.55211
24.4907660484314	45.87698
24.5063960552216	47.64609
24.5220160484314	49.8847
24.5376460552216	52.4784
24.5532660484314	55.21521
24.5688960552216	57.85009
24.5845260620117	60.17982
24.6001460552216	62.13435
24.6157760620117	63.77748
24.6313960552216	65.28355
24.6470260620117	66.8401
24.6626460552216	68.58082
24.6782760620117	70.44043
24.6939060688019	72.1915
24.7095260620117	73.52539
24.7251560688019	74.15057
24.7407760620117	73.90598
24.7564060688019	72.74644
24.7720260620117	70.70883
24.7876560688019	67.76711
24.803286075592	63.74027
24.8189060688019	58.24599
24.834536075592	50.77068
24.8501560688019	40.74297
24.865786075592	27.6227
24.8814060688019	11.09605
24.897036075592	-8.746422
24.9126660823822	-31.14622
24.928286075592	-54.60323
24.9439160823822	-77.0205
24.959536075592	-96.14783
24.9751660823822	-110.1823
24.990786075592	-118.3323
25.0064160823822	-121.0218
25.0220460891724	-119.6413
25.0376660823822	-116.0155
25.0532960891724	-111.7696
25.0689160823822	-107.9361
25.0845460891724	-104.9003
25.1001660823822	-102.5611
25.1157960891724	-100.6006
25.1314260959625	-98.66388
25.1470460891724	-96.43338
25.1626760959625	-93.60953
25.1782960891724	-89.90768
25.1939260959625	-85.09187
25.2095460891724	-79.07169
25.2251760959625	-71.92995
25.2408061027527	-63.90717
25.2564260959625	-55.37733
25.2720561027527	-46.71042
25.2876760959625	-38.18997
25.3033061027527	-29.99072
25.3189260959625	-22.18646
25.3345561027527	-14.8306
25.3501861095428	-8.030609
25.3658061027527	-1.963043
25.3814361095428	3.242096
25.3970561027527	7.538971
25.4126861095428	11.10431
25.4283061027527	14.2247
25.4439361095428	17.15649
25.459566116333	19.94661
25.4751861095428	22.40277
25.490816116333	24.1646
25.5064361095428	24.86606
25.522066116333	24.42068
25.5376961231232	23.0536
25.553316116333	21.31885
25.5689461231232	19.90419
25.584566116333	19.41508
25.6001961231232	20.13026
25.615816116333	21.78819
25.6314461231232	23.49757
25.6470761299133	23.82924
25.6626961231232	21.21635
25.6783261299133	14.47845
25.6939461231232	3.440063
25.7095761299133	-10.7847
25.7251961231232	-25.95447
25.7408261299133	-39.33649
25.7564561367035	-48.59735
25.7720761299133	-52.49081
25.7877061367035	-51.08562
25.8033261299133	-45.44983
25.8189561367035	-37.07504
25.8345761299133	-27.26761
25.8502061367035	-16.88821
25.8658361434937	-6.459137
25.8814561367035	3.622726
25.8970861434937	12.88678
25.9127061367035	20.83366
25.9283361434937	27.15123
25.9439561367035	31.9631
25.9595861434937	35.81018
25.9752161502838	39.52132
25.9908361434937	43.83609
26.0064661502838	49.04813
26.0220861434937	54.88719
26.0377161502838	60.62677
26.0533361434937	65.37801
26.0689661502838	68.43724
26.084596157074	69.52354
26.1002161502838	68.82657
26.115846157074	66.88445
26.1314661502838	64.33177
26.147096157074	61.63783
26.1627161502838	58.9807
26.178346157074	56.2377
26.1939761638641	53.11839
26.209596157074	49.34654
26.2252261638641	44.8541
26.240846157074	39.82211
26.2564761638641	34.57808
26.272096157074	29.44864
26.2877261638641	24.56793
26.3033559322357	19.88702
26.3189761638641	15.2428
26.3346059322357	10.54494
26.3502261638641	5.861221
26.3658559322357	1.398087
26.3814761638641	-2.632935
26.3971059322357	-6.157852
26.4127359390259	-9.324188
26.4283559322357	-12.43645
26.4439859390259	-15.77054
26.4596059322357	-19.44661
26.4752359390259	-23.35188
26.4908559322357	-27.2178
26.5064859390259	-30.73773
26.522115945816	-33.73811
26.5377359390259	-36.22871
26.553365945816	-38.38156
26.5689859390259	-40.43637
26.584615945816	-42.56999
26.6002359390259	-44.84584
26.615865945816	-47.1778
26.6314959526062	-49.39568
26.647115945816	-51.32506
26.6627459526062	-52.85355
26.678365945816	-53.97101
26.6939959526062	-54.73744
26.709615945816	-55.2005
26.7252459526062	-55.30963
26.7408759593964	-54.87152
26.7564959526062	-53.58333
26.7721259593964	-51.14081
26.7877459526062	-47.37984
26.8033759593964	-42.39217
26.8189959526062	-36.56654
26.8346259593964	-30.45651
26.8502559661865	-24.64076
26.8658759593964	-19.54143
26.8815059661865	-15.33206
26.8971259593964	-11.95027
26.9127559661865	-9.200302
26.9283759593964	-6.902191
26.9440059661865	-4.968307
26.9596359729767	-3.430908
26.9752559661865	-2.366013
26.9908859729767	-1.805618
27.0065059661865	-1.646286
27.0221359729767	-1.64798
27.0377559661865	-1.500183
27.0533859729767	-0.9673767
27.0690159797668	0.01722717
27.0846359729767	1.320099
27.1002659797668	2.679688
27.1158859729767	3.836319
27.1315159797668	4.650131
27.1471359729767	5.160477
27.1627659797668	5.535492
27.178395986557	5.941925
27.1940159797668	6.412216
27.209645986557	6.811966
27.2252659797668	6.927795
27.240895986557	6.604263
27.2565159797668	5.840256
27.272145986557	4.807281
27.2877759933472	3.76651
27.303395986557	2.91098
27.3190259933472	2.309464
27.334645986557	1.866974
27.3502759933472	1.430893
27.365895986557	0.880722
27.3815259933472	0.188385
27.3971560001373	-0.6050873
27.4127759933472	-1.439896
27.4284060001373	-2.275665
27.4440259933472	-3.101028
27.4596560001373	-3.871384
27.4752759933472	-4.464096
27.4909060001373	-4.638687
27.5065360069275	-4.122437
27.5221560001373	-2.671051
27.5377860069275	-0.2348022
27.5534060001373	3.00441
27.5690360069275	6.646103
27.5846560001373	10.17473
27.6002860069275	13.11391
27.6159160137177	15.16641
27.6315360069275	16.2274
27.6471660137177	16.36092
27.6627860069275	15.73415
27.6784160137177	14.52087
27.6940360069275	12.89702
27.7096660137177	11.04936
27.7252960205078	9.162979
27.7409160137177	7.448074
27.7565460205078	6.076324
27.7721660137177	5.129654
27.7877960205078	4.561203
27.8034160137177	4.19136
27.8190460205078	3.794937
27.834676027298	3.177528
27.8502960205078	2.231445
27.865926027298	0.961647
27.8815460205078	-0.5543823
27.897176027298	-2.211967
27.9127960205078	-3.931511
27.928426027298	-5.664177
27.9440560340881	-7.373291
27.959676027298	-9.001465
27.9753060340881	-10.44758
27.990926027298	-11.61756
28.0065560340881	-12.49434
28.022176027298	-13.14886
28.0378060340881	-13.74053
28.0534360408783	-14.43605
28.0690560340881	-15.32803
28.0846860408783	-16.38788
28.1003060340881	-17.51369
28.1159360408783	-18.56982
28.1315560340881	-19.44755
28.1471860408783	-20.05964
28.1628160476685	-20.27391
28.1784360408783	-19.90395
28.1940660476685	-18.72818
28.2096860408783	-16.57631
28.2253160476685	-13.45096
28.2409460544586	-9.616196
28.2565660476685	-5.586319
28.2721960544586	-1.965294
28.2878160476685	0.7049255
28.3034460544586	2.168434
28.3190660476685	2.483391
28.3346960544586	2.000526
28.3503260612488	1.158012
28.3659460544586	0.3334045
28.3815760612488	-0.2818604
28.3971960544586	-0.6867714
28.4128260612488	-0.9690628
28.4284460544586	-1.236397
28.4440760612488	-1.535378
28.4597060680389	-1.890087
28.4753260612488	-2.332561
28.4909560680389	-2.922585
28.5065760612488	-3.738998
28.5222060680389	-4.821445
28.5378260612488	-6.104538
28.5534560680389	-7.417583
28.5690860748291	-8.56292
28.5847060680389	-9.343721
28.6003360748291	-9.656811
28.6159560680389	-9.500948
28.6315860748291	-8.93067
28.6472060680389	-8.073275
28.6628360748291	-7.057558
28.6784660816193	-5.98235
28.6940860748291	-4.863089
28.7097160816193	-3.668006
28.7253360748291	-2.344172
28.7409660816193	-0.9539776
28.7565860748291	0.2815971
28.7722160816193	1.088267
28.7878460884094	1.282873
28.8034660816193	1.004749
28.8190960884094	0.7364445
28.8347160816193	1.159943
28.8503460884094	2.828912
28.8659660816193	5.91246
28.8815960884094	10.08
28.8972260951996	14.6362
28.9128460884094	18.86626
28.9284760951996	22.27187
28.9440960884094	24.66641
28.9597260951996	26.08989
28.9753460884094	26.615
28.9909760951996	26.27652
29.0066061019897	25.10064
29.0222260951996	23.1996
29.0378561019897	20.83734
29.0534760951996	18.4128
29.0691061019897	16.29221
29.0847260951996	14.7113
29.1003561019897	13.70378
29.1159861087799	13.13536
29.1316061019897	12.78318
29.1472361087799	12.47127
29.1628561019897	12.09097
29.1784861087799	11.61773
29.1941061019897	11.07362
29.2097361087799	10.47887
29.2253661155701	9.834045
29.2409861087799	9.115814
29.2566161155701	8.32682
29.2722361087799	7.50914
29.2878661155701	6.774864
29.3034861087799	6.234612
29.3191161155701	5.901482
29.3347461223602	5.621445
29.3503661155701	5.066704
29.3659961223602	3.862808
29.3816161155701	1.755043
29.3972461223602	-1.256226
29.4128661155701	-4.880562
29.4284961223602	-8.620865
29.4441261291504	-11.94152
29.4597461223602	-14.3755
29.4753761291504	-15.58205
29.4909961223602	-15.3355
29.5066261291504	-13.54504
29.5222461223602	-10.2982
29.5378761291504	-5.878471
29.5535061359406	-0.7877579
29.5691261291504	4.390045
29.5847561359406	9.147873
29.6003761291504	13.20576
29.6160061359406	16.54922
29.6316261291504	19.3376
29.6472561359406	21.74116
29.6628861427307	23.84272
29.6785061359406	25.64689
29.6941361427307	27.10452
29.7097561359406	28.21317
29.7253861427307	29.04601
29.7410061359406	29.71449
29.7566361427307	30.26893
29.7722661495209	30.65857
29.7878861427307	30.74947
29.8035161495209	30.38781
29.8191361427307	29.52158
29.8347661495209	28.2385
29.8503861427307	26.71803
29.8660161495209	25.18677
29.881646156311	23.77359
29.8972661495209	22.41039
29.912896156311	20.84522
29.9285161495209	18.70407
29.944146156311	15.60671
29.9597661495209	11.36585
29.975396156311	6.094421
29.9910261631012	0.2213593
30.006646156311	-5.545181
30.0222761631012	-10.45601
30.037896156311	-13.95214
30.0535261631012	-15.8846
30.069146156311	-16.62948
30.0847761631012	-17.03845
30.1004059314728	-18.07465
30.1160261631012	-20.43201
30.1316559314728	-24.2803
30.1472761631012	-29.16779
30.1629059314728	-34.15153
30.1785261631012	-38.19536
30.1941559314728	-40.44174
30.2097859382629	-40.45395
30.2254059314728	-38.34565
30.2410359382629	-34.72234
30.2566559314728	-30.69911
30.2722859382629	-27.80447
30.2879059314728	-27.57635
30.3035359382629	-30.93378
30.3191659450531	-37.56791
30.3347859382629	-45.67786
30.3504159450531	-52.44398
30.3660359382629	-55.02949
30.3816659450531	-51.67403
30.3972959518433	-42.41347
30.4129159450531	-28.89668
30.4285459518433	-13.5722
30.4441659450531	1.328331
30.4597959518433	14.41107
30.4754159450531	25.21021
30.4910459518433	33.74208
30.5066759586334	40.04966
30.5222959518433	44.08414
30.5379259586334	45.79853
30.5535459518433	45.45995
30.5691759586334	43.79578
30.5847959518433	41.69572
30.6004259586334	39.8586
30.6160559654236	38.53997
30.6316759586334	37.41249
30.6473059654236	35.75292
30.6629259586334	32.93152
30.6785559654236	28.65619
30.6941759586334	23.21045
30.7098059654236	17.41467
30.7254359722137	12.22566
30.7410559654236	8.341034
30.7566859722137	5.944107
30.7723059654236	4.682495
30.7879359722137	3.88858
30.8035559654236	2.978973
30.8191859722137	1.690002
30.8348159790039	0.1291504
30.8504359722137	-1.359634
30.8660659790039	-2.444504
30.8816859722137	-2.936844
30.8973159790039	-2.782059
30.9129359722137	-1.986771
30.9285659790039	-0.5362244
30.9441959857941	1.602631
30.9598159790039	4.376114
30.9754459857941	7.548172
30.9910659790039	10.74004
31.0066959857941	13.53072
31.0223159790039	15.65317
31.0379459857941	17.10272
31.0535759925842	18.06287
31.0691959857941	18.76068
31.0848259925842	19.2692
31.1004459857941	19.42761
31.1160759925842	18.92033
31.1316959857941	17.48854
31.1473259925842	15.09728
31.1629559993744	12.08363
31.1785759925842	9.042084
31.1942059993744	6.581306
31.2098259925842	5.057472
31.2254559993744	4.440819
31.2410759925842	4.333694
31.2567059993744	4.180832
31.2723360061646	3.563309
31.2879559993744	2.310219
31.3035860061646	0.5745697
31.3192059993744	-1.320435
31.3348360061646	-3.075264
31.3504559993744	-4.531746
31.3660860061646	-5.680084
31.3817160129547	-6.63044
31.3973360061646	-7.487617
31.4129660129547	-8.298729
31.4285860061646	-9.036331
31.4442160129547	-9.654221
31.4598360061646	-10.13125
31.4754660129547	-10.51637
31.4910960197449	-10.92737
31.5067160129547	-11.50668
31.5223460197449	-12.40314
31.5379660129547	-13.67104
31.5535960197449	-15.24268
31.5692160129547	-16.89871
31.5848460197449	-18.34363
31.600476026535	-19.2701
31.6160960197449	-19.48385
31.631726026535	-18.89711
31.6473460197449	-17.53343
31.662976026535	-15.46559
31.6785960197449	-12.78223
31.694226026535	-9.574585
31.7098560333252	-6.022179
31.725476026535	-2.37516
31.7411060333252	1.054161
31.756726026535	3.972366
31.7723560333252	6.234108
31.787976026535	7.870293
31.8036060333252	9.077347
31.8192360401154	10.06339
31.8348560333252	10.96887
31.8504860401154	11.81438
31.8661060333252	12.54367
31.8817360401154	13.13886
31.8973560333252	13.67373
31.9129860401154	14.25946
31.9286160469055	14.97638
31.9442360401154	15.79208
31.9598660469055	16.50303
31.9754860401154	16.83651
31.9911160469055	16.50671
32.0067360401154	15.37536
32.0223660469055	13.47179
32.0379960536957	11.01967
32.0536160469055	8.33065
32.0692460536957	5.768929
32.0848660469055	3.634521
32.1004960536957	2.127533
32.1161160469055	1.296234
32.1317460536957	1.013412
32.1473760604858	1.035606
32.1629960536957	1.063652
32.1786260604858	0.8169327
32.1942460536957	0.1233139
32.2098760604858	-1.073349
32.2254960536957	-2.687798
32.2411260604858	-4.577927
32.256756067276	-6.555191
32.2723760604858	-8.468079
32.288006067276	-10.22591
32.3036260604858	-11.79991
32.319256067276	-13.21597
32.3348760604858	-14.52552
32.350506067276	-15.77813
32.3661360740662	-16.96961
32.381756067276	-18.03812
32.3973860740662	-18.81259
32.413006067276	-19.07519
32.4286360740662	-18.6046
32.444256067276	-17.28758
32.4598860740662	-15.18416
32.4755160808563	-12.50473
32.4911360740662	-9.592274
32.5067660808563	-6.721996
32.5223860740662	-4.066196
32.5380160808563	-1.620117
32.5536360740662	0.6966591
32.5692660808563	2.982792
32.5848960876465	5.234524
32.6005160808563	7.339142
32.6161460876465	9.139881
32.6317660808563	10.48629
32.6473960876465	11.30985
32.6630260944366	11.66078
32.6786460876465	11.66937
32.6942760944366	11.50569
32.7098960876465	11.35403
32.7255260944366	11.3603
32.7411460876465	11.57748
32.7567760944366	11.96255
32.7724061012268	12.39484
32.7880260944366	12.70623
32.8036561012268	12.77602
32.8192760944366	12.58889
32.8349061012268	12.23665
32.8505260944366	11.88921
32.8661561012268	11.69223
32.881786108017	11.67252
32.8974061012268	11.70499
32.913036108017	11.55566
32.9286561012268	11.02438
32.944286108017	10.06802
32.9599061012268	8.830896
32.975536108017	7.57933
32.9911661148071	6.519131
33.006786108017	5.697952
33.0224161148071	4.976548
33.038036108017	4.153816
33.0536661148071	3.083694
33.069286108017	1.793405
33.0849161148071	0.4864817
33.1005461215973	-0.5837259
33.1161661148071	-1.196927
33.1317961215973	-1.284546
33.1474161148071	-0.9063247
33.1630461215973	-0.152575
33.1786661148071	0.9628272
33.1942961215973	2.563131
33.2099261283875	4.913346
33.2255461215973	8.384868
33.2411761283875	13.28324
33.2567961215973	19.66838
33.2724261283875	27.15934
33.2880461215973	34.91074
33.3036761283875	41.7966
33.3193061351776	46.80421
33.3349261283875	49.37451
33.3505561351776	49.62093
33.3661761283875	48.32676
33.3818061351776	46.78348
33.3974261283875	46.49129
33.4130561351776	48.85068
33.4286861419678	54.82613
33.4443061351776	64.56486
33.4599361419678	77.0489
33.4755561351776	89.90457
33.4911861419678	99.702
33.5068061351776	102.7759
33.5224361419678	96.40863
33.5380661487579	79.87196
33.5536861419678	54.7873
33.5693161487579	24.60176
33.5849361419678	-6.5616
33.6005661487579	-35.18252
33.6161861419678	-59.13054
33.6318161487579	-77.73205
33.6474461555481	-91.25494
33.6630661487579	-100.238
33.6786961555481	-105.1215
33.6943161487579	-106.2203
33.7099461555481	-104.0272
33.7255661487579	-99.39319
33.7411961555481	-93.45724
33.7568261623383	-87.29079
33.7724461555481	-81.54169
33.7880761623383	-76.2827
33.8036961555481	-71.17976
33.8193261623383	-65.85806
33.8349461555481	-60.19174
33.8505761623383	-54.48546
33.8662059307098	-49.39174
33.8818261623383	-45.59375
33.8974559307098	-43.48482
33.9130761623383	-42.95822
33.9287059307098	-43.39226
33.9443261623383	-43.8979
33.9599559307098	-43.59979
33.9755859375	-41.91928
33.9912059307098	-38.73141
34.0068359375	-34.37804
34.0224559307098	-29.49411
34.0380859375	-24.77974
34.0537059307098	-20.77332
34.0693359375	-17.7254
34.0849659442902	-15.60707
34.1005859375	-14.21339
34.1162159442902	-13.32571
34.1318359375	-12.79762
34.1474659442902	-12.57683
34.1630859375	-12.57875
34.1787159442902	-12.65047
34.1943459510803	-12.53789
34.2099659442902	-11.98573
34.2255959510803	-10.83585
34.2412159442902	-9.115814
34.2568459510803	-7.006424
34.2724659442902	-4.782394
34.2880959510803	-2.735474
34.3037259578705	-1.040939
34.3193459510803	0.2016449
34.3349759578705	1.004532
34.3505959510803	1.443649
34.3662259578705	1.633133
34.3818459510803	1.680878
34.3974759578705	1.641068
34.4131059646606	1.490662
34.4287259578705	1.122391
34.4443559646606	0.4398804
34.4599759578705	-0.567276
34.4756059646606	-1.668762
34.4912259578705	-2.442291
34.5068559646606	-2.377304
34.5224859714508	-1.123184
34.5381059646606	1.30928
34.5537359714508	4.521469
34.5693559646606	7.81662
34.5849859714508	10.49054
34.6006059646606	12.08258
34.6162359714508	12.53589
34.631865978241	12.13641
34.6474859714508	11.35556
34.663115978241	10.68729
34.6787359714508	10.51929
34.694365978241	11.14195
34.7099859714508	12.74268
34.725615978241	15.42273
34.7412459850311	19.1026
34.756865978241	23.47693
34.7724959850311	28.0368
34.788115978241	32.18862
34.8037459850311	35.44779
34.819365978241	37.55615
34.8349959850311	38.51311
34.8506259918213	38.47066
34.8662459850311	37.63911
34.8818759918213	36.20789
34.8974959850311	34.40565
34.9131259918213	32.58906
34.9287459850311	31.24831
34.9443759918213	30.88226
34.9600059986115	31.76251
34.9756259918213	33.72267
34.9912559986115	36.20917
35.0068759918213	38.50267
35.0225059986115	40.07434
35.0381259918213	40.78162
35.0537559986115	40.88831
35.0693860054016	40.7765
35.0850059986115	40.65147
35.1006360054016	40.34622
35.1162559986115	39.45412
35.1318860054016	37.62079
35.1475059986115	34.81738
35.1631360054016	31.47594
35.1787660121918	28.27666
35.1943860054016	25.80319
35.2100160121918	24.23657
35.2256360054016	23.27072
35.2412660121918	22.28682
35.2568960189819	20.65703
35.2725160121918	18.02513
35.2881460189819	14.37863
35.3037660121918	10.02296
35.3193960189819	5.415802
35.3350160121918	1.030212
35.3506460189819	-2.634018
35.3662760257721	-5.090866
35.3818960189819	-5.917511
35.3975260257721	-4.863678
35.4131460189819	-1.986633
35.4287760257721	2.261856
35.4443960189819	7.105392
35.4600260257721	11.68205
35.4756560325623	15.26772
35.4912760257721	17.47731
35.5069060325623	18.31245
35.5225260257721	18.08675
35.5381560325623	17.23438
35.5537760257721	16.18559
35.5694060325623	15.16486
35.5850360393524	14.15796
35.6006560325623	12.90219
35.6162860393524	11.0531
35.6319060325623	8.369629
35.6475360393524	4.853149
35.6631560325623	0.819397
35.6787860393524	-3.2099
35.6944160461426	-6.757935
35.7100360393524	-9.565979
35.7256660461426	-11.67099
35.7412860393524	-13.38181
35.7569160461426	-15.06009
35.7725360393524	-16.9856
35.7881660461426	-19.34576
35.8037960529327	-22.22098
35.8194160461426	-25.6311
35.8350460529327	-29.5726
35.8506660461426	-33.91864
35.8662960529327	-38.33646
35.8819160461426	-42.40952
35.8975460529327	-45.74759
35.9131760597229	-48.17355
35.9287960529327	-49.86047
35.9444260597229	-51.27921
35.9600460529327	-52.97345
35.9756760597229	-55.2384
35.9912960529327	-57.87192
36.0069260597229	-60.12784
36.0225560665131	-60.93585
36.0381760597229	-59.27573
36.0538060665131	-54.52548
36.0694260597229	-46.73712
36.0850560665131	-36.61865
36.1006760597229	-25.36484
36.1163060665131	-14.31705
36.1319360733032	-4.629486
36.1475560665131	2.959625
36.1631860733032	8.201874
36.1788060665131	11.2916
36.1944360733032	12.70132
36.2100560665131	13.01218
36.2256860733032	12.77576
36.2413160800934	12.38315
36.2569360733032	11.99362
36.2725660800934	11.5527
36.2881860733032	10.8259
36.3038160800934	9.539032
36.3194360733032	7.459167
36.3350660800934	4.511292
36.3506960868835	0.7459412
36.3663160800934	-3.63501
36.3819460868835	-8.349854
36.3975660800934	-13.11813
36.4131960868835	-17.70575
36.4288160800934	-21.95004
36.4444460868835	-25.7684
36.4600760936737	-29.20557
36.4756960868835	-32.35526
36.4913260936737	-35.36853
36.5069460868835	-38.30777
36.5225760936737	-41.08087
36.5381960868835	-43.4314
36.5538260936737	-45.0105
36.5694561004639	-45.54886
36.5850760936737	-45.0217
36.6007061004639	-43.70914
36.6163260936737	-42.11935
36.6319561004639	-40.84415
36.6475760936737	-40.3429
36.6632061004639	-40.78506
36.678836107254	-42.02661
36.6944561004639	-43.62329
36.710086107254	-44.92548
36.7257061004639	-45.25006
36.741336107254	-43.98245
36.7569561004639	-40.74777
36.772586107254	-35.53159
36.7882161140442	-28.72226
36.803836107254	-21.01547
36.8194661140442	-13.26654
36.835086107254	-6.193787
36.8507161140442	-0.1849976
36.866336107254	4.738373
36.8819661140442	8.851501
36.8975961208344	12.51526
36.9132161140442	15.939
36.9288461208344	19.0856
36.9444661140442	21.73334
36.9600961208344	23.57721
36.9757161140442	24.46298
36.9913461208344	24.46008
37.0069761276245	23.85596
37.0225961208344	22.99759
37.0382261276245	22.17377
37.0538461208344	21.50882
37.0694761276245	20.98962
37.0850961208344	20.54227
37.1007261276245	20.12064
37.1163561344147	19.74347
37.1319761276245	19.40802
37.1476061344147	19.04517
37.1632261276245	18.49597
37.1788561344147	17.58279
37.1944761276245	16.20673
37.2101061344147	14.41364
37.2257361412048	12.37576
37.2413561344147	10.3158
37.2569861412048	8.435455
37.2726061344147	6.834839
37.2882361412048	5.535431
37.3038561344147	4.523132
37.3194861412048	3.745148
37.335116147995	3.114685
37.3507361412048	2.481903
37.366366147995	1.623871
37.3819861412048	0.2920532
37.397616147995	-1.696198
37.4132361412048	-4.36142
37.428866147995	-7.481506
37.4444961547852	-10.57977
37.460116147995	-13.01086
37.4757461547852	-14.07828
37.491366147995	-13.24951
37.5069961547852	-10.32739
37.5226261615753	-5.543762
37.5382461547852	0.4412842
37.5538761615753	6.75824
37.5694961547852	12.55942
37.5851261615753	17.27197
37.6007461547852	20.70316
37.6163761615753	22.98703
37.6320059299469	24.40643
37.6476261615753	25.19348
37.6632559299469	25.46814
37.6788761615753	25.21899
37.6945059299469	24.47113
37.7101261615753	23.3244
37.7257559299469	21.96964
37.7413859367371	20.57864
37.7570059299469	19.24915
37.7726359367371	17.94763
37.7882559299469	16.54395
37.8038859367371	14.9248
37.8195059299469	13.0015
37.8351359367371	10.79437
37.8507659435272	8.382935
37.8663859367371	5.859253
37.8820159435272	3.319031
37.8976359367371	0.8543091
37.9132659435272	-1.4328
37.9288859367371	-3.421722
37.9445159435272	-5.026215
37.9601459503174	-6.232635
37.9757659435272	-7.074249
37.9913959503174	-7.611664
38.0070159435272	-7.907104
38.0226459503174	-8.003113
38.0382659435272	-7.947632
38.0538959503174	-7.79657
38.0695259571075	-7.599365
38.0851459503174	-7.378693
38.1007759571075	-7.132629
38.1163959503174	-6.849915
38.1320259571075	-6.550537
38.1476459503174	-6.322601
38.1632759571075	-6.32724
38.1789059638977	-6.780762
38.1945259571075	-7.871796
38.2101559638977	-9.703949
38.2257759571075	-12.2095
38.2414059638977	-15.14697
38.2570259571075	-18.08408
38.2726559638977	-20.4519
38.2882859706879	-21.60901
38.3039059638977	-20.98886
38.3195359706879	-18.29822
38.3351559638977	-13.65982
38.3507859706879	-7.658234
38.3664059638977	-1.22702
38.3820359706879	4.59729
38.397665977478	8.969025
38.4132859706879	11.41592
38.428915977478	11.85471
38.4445359706879	10.4429
38.460165977478	7.437592
38.4757859706879	3.088684
38.491415977478	-2.323761
38.5070459842682	-8.485504
38.522665977478	-15.05283
38.5382959842682	-21.76627
38.553915977478	-28.56107
38.5695459842682	-35.61517
38.585165977478	-43.20142
38.6007959842682	-51.43608
38.6164259910583	-60.03705
38.6320459842682	-68.27406
38.6476759910583	-75.13579
38.6632959842682	-79.63545
38.6789259910583	-81.12253
38.6945459842682	-79.40344
38.7101759910583	-74.68024
38.7258059978485	-67.35355
38.7414259910583	-57.8483
38.7570559978485	-46.59288
38.7726759910583	-34.06877
38.7883059978485	-20.92015
38.8039259910583	-7.931137
38.8195559978485	4.082092
38.8351860046387	14.43733
38.8508059978485	22.77576
38.8664360046387	29.13614
38.8820559978485	33.84871
38.8976860046387	37.35898
38.9133059978485	40.01842
38.9289360046387	41.96727
38.9445660114288	43.13348
38.9601860046387	43.33119
38.9758160114288	42.37863
38.9914360046387	40.24106
39.0070660114288	37.1559
39.0226860046387	33.57301
39.0383160114288	30.11172
39.053946018219	27.38388
39.0695660114288	25.79388
39.085196018219	25.42766
39.1008160114288	26.05211
39.116446018219	27.16531
39.1320660114288	28.23321
39.147696018219	28.8562
39.1633260250092	28.87664
39.178946018219	28.39204
39.1945760250092	27.6419
39.210196018219	26.83909
39.2258260250092	26.07774
39.241446018219	25.29426
39.2570760250092	24.3264
39.2727060317993	23.03674
39.2883260250092	21.43279
39.3039560317993	19.66269
39.3195760250092	18.02473
39.3352060317993	16.8301
39.3508260250092	16.26335
39.3664560317993	16.30598
39.3820860385895	16.72082
39.3977060317993	17.16647
39.4133360385895	17.32943
39.4289560317993	17.05523
39.4445860385895	16.31525
39.4602060317993	15.20331
39.4758360385895	13.83543
39.4914660453796	12.2477
39.5070860385895	10.42275
39.5227160453796	8.280693
39.5383360385895	5.805367
39.5539660453796	3.077049
39.5695860385895	0.2961197
39.5852160453796	-2.307068
39.6008460521698	-4.477623
39.6164660453796	-6.092896
39.6320960521698	-7.201782
39.6477160453796	-8.025955
39.6633460521698	-8.912651
39.67897605896	-10.20568
39.6945960521698	-12.11907
39.71022605896	-14.66845
39.7258460521698	-17.6131
39.74147605896	-20.50923
39.7570960521698	-22.79466
39.77272605896	-23.91891
39.7883560657501	-23.43762
39.80397605896	-21.15957
39.8196060657501	-17.18431
39.83522605896	-11.93352
39.8508560657501	-6.052994
39.86647605896	-0.2841873
39.8821060657501	4.767776
39.8977360725403	8.749199
39.9133560657501	11.62464
39.9289860725403	13.61186
39.9446060657501	14.97529
39.9602360725403	15.89896
39.9758560657501	16.3843
39.9914860725403	16.34532
40.0071160793304	15.71948
40.0227360725403	14.56371
40.0383660793304	13.08976
40.0539860725403	11.55925
40.0696160793304	10.16697
40.0852360725403	8.916035
40.1008660793304	7.682831
40.1164960861206	6.295395
40.1321160793304	4.68689
40.1477460861206	2.916744
40.1633660793304	1.151798
40.1789960861206	-0.4553776
40.1946160793304	-1.828318
40.2102460861206	-2.980888
40.2258760929108	-4.00621
40.2414960861206	-5.012674
40.2571260929108	-6.07531
40.2727460861206	-7.232981
40.2883760929108	-8.495897
40.3039960861206	-9.810595
40.3196260929108	-11.0912
40.3352560997009	-12.1755
40.3508760929108	-12.86647
40.3665060997009	-13.01236
40.3821260929108	-12.56465
40.3977560997009	-11.6314
40.4133760929108	-10.46275
40.4290060997009	-9.422384
40.4446361064911	-8.847473
40.4602560997009	-8.997643
40.4758861064911	-9.906007
40.4915060997009	-11.35852
40.5071361064911	-12.86946
40.5227560997009	-13.81797
40.5383861064911	-13.6205
40.5540161132812	-11.91153
40.5696361064911	-8.72069
40.5852661132812	-4.393205
40.6008861064911	0.4569072
40.6165161132812	5.23421
40.6321361064911	9.508467
40.6477661132812	13.12121
40.6633961200714	16.11067
40.6790161132812	18.60673
40.6946461200714	20.66375
40.7102661132812	22.2215
40.7258961200714	23.18046
40.7415161132812	23.45889
40.7571461200714	23.10935
40.7727761268616	22.30538
40.7883961200714	21.26839
40.8040261268616	20.1922
40.8196461200714	19.17916
40.8352761268616	18.21204
40.8508961200714	17.19067
40.8665261268616	15.96511
40.8821561336517	14.3433
40.8977761268616	12.14452
40.9134061336517	9.221107
40.9290261268616	5.525345
40.9446561336517	1.177528
40.9602761268616	-3.542995
40.9759061336517	-8.253765
40.9915361404419	-12.55333
41.0071561336517	-16.09802
41.0227861404419	-18.66978
41.0384061336517	-20.17685
41.0540361404419	-20.66158
41.0696561336517	-20.33725
41.0852861404419	-19.58298
41.1009161472321	-18.93221
41.1165361404419	-18.95131
41.1321661472321	-20.07155
41.1477861404419	-22.41416
41.1634161472321	-25.78698
41.1790361404419	-29.73311
41.1946661472321	-33.79062
41.2102961540222	-37.68564
41.2259161472321	-41.4336
41.2415461540222	-45.25296
41.2571661472321	-49.38219
41.2727961540222	-53.80587
41.2884161472321	-58.17142
41.3040461540222	-61.82115
41.3196761608124	-64.05036
41.3352961540222	-64.42169
41.3509261608124	-62.9703
41.3665461540222	-60.26532
41.3821761608124	-57.25802
41.3977961540222	-54.90312
41.4134261608124	-53.87896
41.429055929184	-54.34102
41.4446761608124	-55.94985
41.460305929184	-58.074
41.4759261608124	-60.05038
41.491555929184	-61.2758
41.5071761608124	-61.1877
41.522805929184	-59.20009
41.5384359359741	-54.77516
41.554055929184	-47.55768
41.5696859359741	-37.60385
41.585305929184	-25.46616
41.6009359359741	-12.06148
41.616555929184	1.577728
41.6321859359741	14.56705
41.6478159427643	26.34338
41.6634359359741	36.58565
41.6790659427643	45.1342
41.6946859359741	51.87993
41.7103159427643	56.80037
41.7259359359741	60.04147
41.7415659427643	61.97658
41.7571959495544	63.09319
41.7728159427643	63.81836
41.7884459495544	64.33592
41.8040659427643	64.57236
41.8196959495544	64.29805
41.8353159427643	63.32841
41.8509459495544	61.63766
41.8665759563446	59.39645
41.8821959495544	56.88638
41.8978259563446	54.42441
41.9134459495544	52.23026
41.9290759563446	50.38458
41.9446959495544	48.78366
41.9603259563446	47.19775
41.9759559631348	45.33841
41.9915759563446	42.95508
42.0072059631348	39.93295
42.0228259563446	36.38525
42.0384559631348	32.63547
42.0540759563446	29.18387
42.0697059631348	26.55368
42.0853359699249	25.1532
42.1009559631348	25.1228
42.1165859699249	26.31036
42.1322059631348	28.28598
42.1478359699249	30.50031
42.1634559631348	32.4147
42.1790859699249	33.65021
42.1947159767151	34.03098
42.2103359699249	33.56113
42.2259659767151	32.37784
42.2415859699249	30.63458
42.2572159767151	28.51004
42.2728359699249	26.17181
42.2884659767151	23.81439
42.3040959835052	21.68173
42.3197159767151	20.00479
42.3353459835052	18.96722
42.3509659767151	18.62305
42.3665959835052	18.87781
42.3822259902954	19.48883
42.3978459835052	20.14017
42.4134759902954	20.51508
42.4290959835052	20.397
42.4447259902954	19.75656
42.4603459835052	18.72943
42.4759759902954	17.56723
42.4916059970856	16.50824
42.5072259902954	15.67917
42.5228559970856	15.01169
42.5384759902954	14.29367
42.5541059970856	13.30322
42.5697259902954	11.91544
42.5853559970856	10.23697
42.6009860038757	8.526184
42.6166059970856	7.105591
42.6322360038757	6.19043
42.6478559970856	5.823975
42.6634860038757	5.826752
42.6791059970856	5.910309
42.6947360038757	5.765869
42.7103660106659	5.139709
42.7259860038757	3.944427
42.7416160106659	2.247894
42.7572360038757	0.3041992
42.7728660106659	-1.532745
42.7884860038757	-2.872253
42.8041160106659	-3.383728
42.8197460174561	-2.911682
42.8353660106659	-1.524261
42.8509960174561	0.4688721
42.8666160106659	2.662781
42.8822460174561	4.612579
42.8978660106659	5.999664
42.9134960174561	6.63739
42.9291260242462	6.510345
42.9447460174561	5.723724
42.9603760242462	4.46524
42.9759960174561	2.93576
42.9916260242462	1.352753
43.0072460174561	-0.0541687
43.0228760242462	-1.079041
43.0385060310364	-1.590698
43.0541260242462	-1.588074
43.0697560310364	-1.226593
43.0853760242462	-0.7904053
43.1010060310364	-0.5790405
43.1166260242462	-0.818634
43.1322560310364	-1.610809
43.1478860378265	-2.904877
43.1635060310364	-4.563019
43.1791360378265	-6.407806
43.1947560310364	-8.258087
43.2103860378265	-9.971069
43.2260060310364	-11.42671
43.2416360378265	-12.52841
43.2572660446167	-13.21233
43.2728860378265	-13.48946
43.2885160446167	-13.41693
43.3041360378265	-13.13269
43.3197660446167	-12.80875
43.3353860378265	-12.64012
43.3510160446167	-12.8307
43.3666460514069	-13.54253
43.3822660446167	-14.83728
43.3978960514069	-16.61824
43.4135160446167	-18.6593
43.4291460514069	-20.58833
43.4447660446167	-21.99806
43.4603960514069	-22.48837
43.476026058197	-21.75858
43.4916460514069	-19.67033
43.507276058197	-16.29478
43.5228960514069	-11.93819
43.538526058197	-7.085983
43.5541460514069	-2.315628
43.569776058197	1.868484
43.5854060649872	5.131195
43.601026058197	7.396561
43.6166560649872	8.800842
43.632276058197	9.594284
43.6479060649872	10.03069
43.663526058197	10.28032
43.6791560649872	10.38968
43.6947860717773	10.3331
43.7104060649872	10.07941
43.7260360717773	9.629089
43.7416560649872	9.049271
43.7572860717773	8.478729
43.7729060649872	8.031601
43.7885360717773	7.797333
43.8041660785675	7.781097
43.8197860717773	7.927429
43.8354160785675	8.140137
43.8510360717773	8.34285
43.8666660785675	8.481934
43.8822860717773	8.522995
43.8979160785675	8.464386
43.9135460853577	8.307922
43.9291660785675	8.09053
43.9447960853577	7.891846
43.9604160785675	7.868561
43.9760460853577	8.161423
43.9916660785675	8.881393
44.0072960853577	9.986938
44.0229260921478	11.28868
44.0385460853577	12.50822
44.0541760921478	13.37692
44.0697960853577	13.74895
44.0854260921478	13.68759
44.1010460853577	13.45667
44.1166760921478	13.40927
44.132306098938	13.89291
44.1479260921478	15.09821
44.163556098938	17.02946
44.1791760921478	19.51303
44.194806098938	22.29721
44.2104260921478	25.16112
44.226056098938	27.97766
44.2416861057281	30.75085
44.257306098938	33.53271
44.2729361057281	36.35664
44.288556098938	39.17089
44.3041861057281	41.8258
44.319806098938	44.11775
44.3354361057281	45.93798
44.3510661125183	47.39231
44.3666861057281	48.81332
44.3823161125183	50.70122
44.3979361057281	53.47626
44.4135661125183	57.31468
44.4291861057281	61.98311
44.4448161125183	66.88957
44.4604461193085	71.27155
44.4760661125183	74.45999
44.4916961193085	76.13008
44.5073161125183	76.37556
44.5229461193085	75.73546
44.5385661125183	75.05762
44.5541961193085	75.36916
44.5698261260986	77.54017
44.5854461193085	81.87534
44.6010761260986	87.64882
44.6166961193085	92.86064
44.6323261260986	94.488
44.6479561328888	89.32874
44.6635761260986	75.24502
44.6792061328888	52.19474
44.6948261260986	22.56543
44.7104561328888	-9.50407
44.7260761260986	-39.55473
44.7417061328888	-64.21066
44.757336139679	-82.03549
44.7729561328888	-93.43288
44.788586139679	-99.91078
44.8042061328888	-103.2193
44.819836139679	-104.8811
44.8354561328888	-106.1181
44.851086139679	-107.9313
44.8667161464691	-111.0627
44.882336139679	-115.6629
44.8979661464691	-121.0222
44.913586139679	-125.5388
44.9292161464691	-127.2163
44.944836139679	-124.4004
44.9604661464691	-116.4629
44.9760961532593	-104.0753
44.9917161464691	-88.89964
45.0073461532593	-72.96469
45.0229661464691	-58.01215
45.0385961532593	-45.10754
45.0542161464691	-34.50444
45.0698461532593	-25.84592
45.0854761600494	-18.44566
45.1010961532593	-11.62248
45.1167261600494	-4.960464
45.1323461532593	1.54834
45.1479761600494	7.557495
45.1635961532593	12.62665
45.1792261600494	16.4034
45.194855928421	18.81837
45.2104761600494	20.07913
45.226105928421	20.53207
45.2417261600494	20.59479
45.257355928421	20.83191
45.2729761600494	21.92505
45.288605928421	24.48599
45.3042359352112	28.52863
45.319855928421	32.9725
45.3354859352112	35.64108
45.351105928421	33.90668
45.3667359352112	25.87714
45.382355928421	11.50391
45.3979859352112	-7.157349
45.4136159420013	-26.63736
45.4292359352112	-43.48785
45.4448659420013	-55.56934
45.4604859352112	-62.61249
45.4761159420013	-65.74725
45.4917359352112	-66.57443
45.5073659420013	-66.25583
45.5229959487915	-65.26038
45.5386159420013	-63.64862
45.5542459487915	-61.53067
45.5698659420013	-59.28314
45.5854959487915	-57.39636
45.6011159420013	-56.13403
45.6167459487915	-55.27191
45.6323759555817	-54.17786
45.6479959487915	-52.14151
45.6636259555817	-48.71753
45.6792459487915	-44.04404
45.6948759555817	-38.8382
45.7104959487915	-34.11154
45.7261259555817	-30.78412
45.7417559623718	-29.32434
45.7573759555817	-29.59052
45.7730059623718	-30.97296
45.7886259555817	-32.7785
45.8042559623718	-34.55765
45.8198759555817	-36.27542
45.8355059623718	-38.19733
45.851135969162	-40.61945
45.8667559623718	-43.65793
45.882385969162	-47.20401
45.8980059623718	-51.0766
45.913635969162	-55.17731
45.9292559623718	-59.50888
45.944885969162	-64.08237
45.9605159759521	-68.87286
45.976135969162	-73.77692
45.9917659759521	-78.78745
46.007385969162	-84.04956
46.0230159759521	-89.86688
46.038635969162	-96.3649
46.0542659759521	-103.0897
46.0698959827423	-108.854
46.0855159759521	-112.1182
46.1011459827423	-111.6374
46.1167659759521	-107.1986
46.1323959827423	-99.76437
46.1480159759521	-90.97829
46.1636459827423	-82.24844
46.1792759895325	-73.8956
46.1948959827423	-64.97523
46.2105259895325	-53.87984
46.2261459827423	-39.35663
46.2417759895325	-21.32837
46.2573959827423	-1.071548
46.2730259895325	19.43016
46.2886559963226	38.45107
46.3042759895325	55.22991
46.3199059963226	70.08413
46.3355259895325	83.79861
46.3511559963226	96.7823
46.3667759895325	108.5518
46.3824059963226	117.8938
46.3980360031128	123.4707
46.4136559963226	124.5356
46.4292860031128	121.4231
46.4449059963226	115.4115
46.4605360031128	108.0864
46.4761559963226	100.658
46.4917860031128	93.53218
46.507416009903	86.4386
46.5230360031128	78.95503
46.538666009903	71.03983
46.5542860031128	63.26389
46.569916009903	56.62488
46.5855360031128	51.9546
46.601166009903	49.48519
46.6167960166931	48.67284
46.632416009903	48.47399
46.6480460166931	47.88937
46.663666009903	46.42451
46.6792960166931	44.22487
46.694916009903	41.89157
46.7105460166931	40.03329
46.7261760234833	38.91443
46.7417960166931	38.2902
46.7574260234833	37.60381
46.7730460166931	36.26624
46.7886760234833	34.00447
46.8042960166931	30.9563
46.8199260234833	27.56828
46.8355560302734	24.36125
46.8511760234833	21.6418
46.8668060302734	19.37523
46.8824260234833	17.31234
46.8980560302734	15.16916
46.9136760234833	12.85571
46.9293060302734	10.57002
46.9449360370636	8.672234
46.9605560302734	7.468769
46.9761860370636	6.982685
46.9918060302734	6.939957
47.0074360370636	6.899223
47.0230560302734	6.484589
47.0386860370636	5.596359
47.0543160438538	4.380493
47.0699360370636	3.111702
47.0855660438538	1.999428
47.1011860370636	1.064331
47.1168160438538	0.1950531
47.1324460506439	-0.7178268
47.1480660438538	-1.629105
47.1636960506439	-2.289391
47.1793160438538	-2.326302
47.1949460506439	-1.420258
47.2105660438538	0.5162735
47.2261960506439	3.287697
47.2418260574341	6.433418
47.2574460506439	9.391174
47.2730760574341	11.67927
47.2886960506439	12.98373
47.3043260574341	13.22069
47.3199460506439	12.48516
47.3355760574341	11.01429
47.3512060642242	9.090569
47.3668260574341	6.995747
47.3824560642242	4.968914
47.3980760574341	3.234901
47.4137060642242	1.985432
47.4293260574341	1.399502
47.4449560642242	1.596508
47.4605860710144	2.594254
47.4762060642242	4.251141
47.4918360710144	6.24567
47.5074560642242	8.156013
47.5230860710144	9.554016
47.5387060642242	10.17546
47.5543360710144	9.967903
47.5699660778046	9.083282
47.5855860710144	7.777428
47.6012160778046	6.302597
47.6168360710144	4.841694
47.6324660778046	3.480801
47.6480860710144	2.252628
47.6637160778046	1.133389
47.6793460845947	0.07249069
47.6949660778046	-1.057125
47.7105960845947	-2.409843
47.7262160778046	-4.145958
47.7418460845947	-6.352097
47.7574660778046	-8.952633
47.7730960845947	-11.74135
47.7887260913849	-14.42572
47.8043460845947	-16.74047
47.8199760913849	-18.53045
47.8355960845947	-19.78917
47.8512260913849	-20.6144
47.8668460845947	-21.17976
47.8824760913849	-21.69548
47.898106098175	-22.30711
47.9137260913849	-23.09776
47.929356098175	-23.97556
47.9449760913849	-24.66844
47.960606098175	-24.74017
47.9762260913849	-23.733
47.991856098175	-21.34875
48.0074861049652	-17.58722
48.023106098175	-12.79764
48.0387361049652	-7.57093
48.054356098175	-2.578827
48.0699861049652	1.654694
48.085606098175	4.816799
48.1012361049652	6.812141
48.1168661117554	7.69738
48.1324861049652	7.565697
48.1481161117554	6.571083
48.1637361049652	4.958065
48.1793661117554	3.117741
48.1949861049652	1.532009
48.2106161117554	0.7115479
48.2262461185455	0.9936218
48.2418661117554	2.438629
48.2574961185455	4.736458
48.2731161117554	7.295143
48.2887461185455	9.404694
48.3043661117554	10.45599
48.3199961185455	10.13898
48.3356261253357	8.518299
48.3512461185455	6.016296
48.3668761253357	3.228737
48.3824961185455	0.7366943
48.3981261253357	-1.080391
48.4137461185455	-2.140297
48.4293761253357	-2.652519
48.4450061321259	-2.996029
48.4606261253357	-3.499893
48.4762561321259	-4.301125
48.4918761253357	-5.283291
48.5075061321259	-6.211765
48.5231261253357	-6.886448
48.5387561321259	-7.280533
48.554386138916	-7.591602
48.5700061321259	-8.108555
48.585636138916	-9.066536
48.6012561321259	-10.51381
48.616886138916	-12.26742
48.6325061321259	-13.99776
48.648136138916	-15.32791
48.6637661457062	-15.93897
48.679386138916	-15.58546
48.6950161457062	-14.13913
48.710636138916	-11.5784
48.7262661457062	-8.047791
48.741886138916	-3.874325
48.7575161457062	0.4975815
48.7731461524963	4.565063
48.7887661457062	7.928715
48.8043961524963	10.3881
48.8200161457062	11.95924
48.8356461524963	12.83371
48.8512661457062	13.26666
48.8668961524963	13.46161
48.8825261592865	13.48263
48.8981461524963	13.26563
48.9137761592865	12.68195
48.9293961524963	11.70556
48.9450261592865	10.44489
48.9606461524963	9.149765
48.9762761592865	8.106182
48.9919059276581	7.49165
49.0075261592865	7.282127
49.0231559276581	7.281395
49.0387761592865	7.240837
49.0544059276581	6.980545
49.0700261592865	6.485382
49.0856559276581	5.819389
49.1012859344482	5.088982
49.1169059276581	4.331337
49.1325359344482	3.493515
49.1481559276581	2.538399
49.1637859344482	1.482872
49.1794059276581	0.4682693
49.1950359344482	-0.3300247
49.2106659412384	-0.7656631
49.2262859344482	-0.8478546
49.2419159412384	-0.763298
49.2575359344482	-0.8227005
49.2731659412384	-1.358383
49.2887859344482	-2.601143
49.3044159412384	-4.583984
49.3200459480286	-7.185295
49.3356659412384	-10.15352
49.3512959480286	-13.22359
49.3669159412384	-16.14412
49.3825459480286	-18.71998
49.3981659412384	-20.75579
49.4137959480286	-22.12929
49.4294259548187	-22.80193
49.4450459480286	-22.88943
49.4606759548187	-22.62861
49.4762959480286	-22.24783
49.4919259548187	-21.8754
49.5075559616089	-21.48506
49.5231759548187	-20.92082
49.5388059616089	-20.09416
49.5544259548187	-19.10276
49.5700559616089	-18.22423
49.5856759548187	-17.79858
49.6013059616089	-17.98609
49.616935968399	-18.58781
49.6325559616089	-19.10709
49.648185968399	-18.8987
49.6638059616089	-17.49332
49.679435968399	-14.79676
49.6950559616089	-11.14232
49.710685968399	-7.124687
49.7263159751892	-3.332024
49.741935968399	-0.1030655
49.7575659751892	2.538925
49.773185968399	4.799568
49.7888159751892	6.923866
49.804435968399	9.033661
49.8200659751892	11.03296
49.8356959819794	12.6936
49.8513159751892	13.82652
49.8669459819794	14.41323
49.8825659751892	14.61372
49.8981959819794	14.70168
49.9138159751892	14.86731
49.9294459819794	15.14859
49.9450759887695	15.37247
49.9606959819794	15.2625
49.9763259887695	14.5769
49.9919459819794	13.23665
50.0075759887695	11.35844
50.0231959819794	9.249954
50.0388259887695	7.352402
50.0544559955597	6.11824
50.0700759887695	5.959427
50.0857059955597	7.098389
50.1013259887695	9.514526
50.1169559955597	12.9324
50.1325759887695	16.87392
50.1482059955597	20.76427
50.1638360023499	24.07973
50.1794559955597	26.48976
50.1950860023499	27.93556
50.2107059955597	28.60225
50.2263360023499	28.78394
50.2419559955597	28.75458
50.2575860023499	28.62442
50.27321600914	28.36412
50.2888360023499	27.83037
50.30446600914	26.93181
50.3200860023499	25.72629
50.33571600914	24.44061
50.3513360023499	23.40947
50.36696600914	22.9239
50.3825960159302	23.08667
50.39821600914	23.73003
50.4138460159302	24.48657
50.42946600914	24.92746
50.4450960159302	24.70891
50.46071600914	23.70457
50.4763460159302	21.93501
50.4919760227203	19.53842
50.5075960159302	16.65814
50.5232260227203	13.39365
50.5388460159302	9.820786
50.5544760227203	6.060089
50.5700960159302	2.239792
50.5857260227203	-1.589905
50.6013560295105	-5.560684
50.6169760227203	-10.00023
50.6326060295105	-15.21394
50.6482260227203	-21.22507
50.6638560295105	-27.53903
50.6794760227203	-33.16638
50.6951060295105	-36.91682
50.7107360363007	-37.82274
50.7263560295105	-35.53305
50.7419860363007	-30.40154
50.7576060295105	-23.35312
50.7732360363007	-15.50041
50.7888560295105	-7.8545
50.8044860363007	-1.077568
50.8201160430908	4.489456
50.8357360363007	8.773964
50.8513660430908	11.79435
50.8669860363007	13.58648
50.8826160430908	14.17748
50.8982360363007	13.59312
50.9138660430908	11.96672
50.929496049881	9.545219
50.9451160430908	6.683968
50.960746049881	3.770874
50.9763660430908	1.102058
50.991996049881	-1.260056
51.0076160430908	-3.45153
51.023246049881	-5.737068
51.0388760566711	-8.39061
51.054496049881	-11.54642
51.0701260566711	-15.18031
51.085746049881	-19.06238
51.1013760566711	-22.87899
51.116996049881	-26.32485
51.1326260566711	-29.23273
51.1482560634613	-31.59467
51.1638760566711	-33.52949
51.1795060634613	-35.08431
51.1951260566711	-36.07738
51.2107560634613	-36.08622
51.2263760566711	-34.50723
51.2420060634613	-30.91507
51.2576360702515	-25.32963
51.2732560634613	-18.33597
51.2888860702515	-10.89381
51.3045060634613	-3.924347
51.3201360702515	1.995377
51.3357560634613	6.75946
51.3513860702515	10.48847
51.3670160770416	13.26268
51.3826360702515	14.85986
51.3982660770416	14.83527
51.4138860702515	12.85658
51.4295160770416	8.988617
51.4451360702515	3.828316
51.4607660770416	-1.702347
51.4763960838318	-6.664215
51.4920160770416	-10.44644
51.5076460838318	-12.77477
51.5232660770416	-13.64375
51.5388960838318	-13.11263
51.5545160770416	-11.19788
51.5701460838318	-7.946396
51.5857760906219	-3.536415
51.6013960838318	1.593506
51.6170260906219	6.846123
51.6326460838318	11.59631
51.6482760906219	15.42358
51.6639060974121	18.16708
51.6795260906219	19.94064
51.6951560974121	21.05651
51.7107760906219	21.81916
51.7264060974121	22.43307
51.7420260906219	22.95584
51.7576560974121	23.34808
51.7732861042023	23.50314
51.7889060974121	23.32464
51.8045361042023	22.73685
51.8201560974121	21.67091
51.8357861042023	20.09686
51.8514060974121	18.01657
51.8670361042023	15.48706
51.8826661109924	12.66699
51.8982861042023	9.794716
51.9139161109924	7.111633
51.9295361042023	4.792305
51.9451661109924	2.888924
51.9607861042023	1.322556
51.9764161109924	-0.02844238
51.9920461177826	-1.265762
52.0076661109924	-2.408829
52.0232961177826	-3.380684
52.0389161109924	-4.062698
52.0545461177826	-4.387138
52.0701661109924	-4.360374
52.0857961177826	-4.102661
52.1014261245728	-3.775032
52.1170461177826	-3.525375
52.1326761245728	-3.459961
52.1482961177826	-3.639847
52.1639261245728	-4.092323
52.1795461177826	-4.794113
52.1951761245728	-5.690918
52.2108061313629	-6.68148
52.2264261245728	-7.649986
52.2420561313629	-8.493637
52.2576761245728	-9.172546
52.2733061313629	-9.750313
52.2889261245728	-10.37322
52.3045561313629	-11.16637
52.3201861381531	-12.11059
52.3358061313629	-12.98669
52.3514361381531	-13.40267
52.3670561313629	-12.92715
52.3826861381531	-11.27029
52.3983061313629	-8.404083
52.4139361381531	-4.612427
52.4295661449432	-0.4300766
52.4451861381531	3.5541
52.4608161449432	6.876785
52.4764361381531	9.308113
52.4920661449432	10.87868
52.5076861381531	11.80959
52.5233161449432	12.35767
52.5389461517334	12.70673
52.5545661449432	12.91016
52.5701961517334	12.89997
52.5858161449432	12.54746
52.6014461517334	11.78819
52.6170661449432	10.63976
52.6326961517334	9.234268
52.6483261585236	7.758957
52.6639461517334	6.409798
52.6795761585236	5.341743
52.6951961517334	4.685013
52.7108261585236	4.510429
52.7264461517334	4.810097
52.7420761585236	5.469017
52.7577061653137	6.284027
52.7733261585236	6.995102
52.7889561653137	7.360977
52.8045761585236	7.209465
52.8202061653137	6.505882
52.8358261585236	5.339752
52.8514561653137	3.88739
52.8670859336853	2.331406
52.8827061653137	0.8316116
52.8983359336853	-0.4937286
52.9139561653137	-1.567352
52.9295859336853	-2.37973
52.9452061653137	-3.015991
52.9608359336853	-3.609413
52.9764659404755	-4.323784
52.9920859336853	-5.272034
53.0077159404755	-6.505714
53.0233359336853	-8.001114
53.0389659404755	-9.673111
53.0545859336853	-11.40272
53.0702159404755	-13.02062
53.0858459472656	-14.31672
53.1014659404755	-14.99389
53.1170959472656	-14.74548
53.1327159404755	-13.33193
53.1483459472656	-10.71619
53.1639659404755	-7.116615
53.1795959472656	-3.030472
53.1952259540558	0.9093018
53.2108459472656	4.148384
53.2264759540558	6.375534
53.2420959472656	7.587532
53.2577259540558	8.042084
53.2733459472656	8.088402
53.2889759540558	8.008301
53.3046059608459	7.911133
53.3202259540558	7.765594
53.3358559608459	7.468674
53.3514759540558	6.978081
53.3671059608459	6.331131
53.3827259540558	5.652519
53.3983559608459	5.095749
53.4139859676361	4.774239
53.4296059608459	4.714691
53.4452359676361	4.846252
53.4608559608459	5.046356
53.4764859676361	5.195335
53.4921059608459	5.230919
53.5077359676361	5.154999
53.5233659744263	4.989464
53.5389859676361	4.696762
53.5546159744263	4.16407
53.5702359676361	3.224464
53.5858659744263	1.751205
53.6014859676361	-0.1868286
53.6171159744263	-2.301064
53.6327459812164	-4.150734
53.6483659744263	-5.333961
53.6639959812164	-5.635803
53.6796159744263	-5.179413
53.6952459812164	-4.321106
53.7108659744263	-3.52343
53.7264959812164	-3.184036
53.7421259880066	-3.527534
53.7577459812164	-4.580765
53.7733759880066	-6.173386
53.7889959812164	-7.98423
53.8046259880066	-9.566284
53.8202459812164	-10.44205
53.8358759880066	-10.18301
53.8515059947968	-8.555191
53.8671259880066	-5.615765
53.8827559947968	-1.721638
53.8983759880066	2.573658
53.9140059947968	6.757786
53.9296259880066	10.49295
53.9452559947968	13.67696
53.9608860015869	16.39593
53.9765059947968	18.78428
53.9921360015869	20.89338
54.0077559947968	22.63007
54.0233860015869	23.87441
54.0390059947968	24.54396
54.0546360015869	24.74951
54.0702660083771	24.79917
54.0858860015869	25.0765
54.1015160083771	25.90098
54.1171360015869	27.34578
54.1327660083771	29.15199
54.1483860015869	30.79911
54.1640160083771	31.79265
54.1796460151672	31.87482
54.1952660083771	31.28933
54.2108960151672	30.70027
54.2265160083771	30.95229
54.2421460151672	32.67797
54.2577660083771	35.95097
54.2733960151672	40.2205
54.2890260219574	44.48568
54.3046460151672	47.76924
54.3202760219574	49.52814
54.3358960151672	49.96969
54.3515260219574	49.9597
54.3671560287476	50.61959
54.3827760219574	52.80013
54.3984060287476	56.60007
54.4140260219574	61.3033
54.4296560287476	65.59148
54.4452760219574	68.09632
54.4609060287476	67.99823
54.4765360355377	65.50788
54.4921560287476	61.93195
54.5077860355377	59.36397
54.5234060287476	60.04187
54.5390360355377	65.68017
54.5546560287476	76.86295
54.5702860355377	92.64644
54.5859160423279	110.4641
54.6015360355377	126.3759
54.6171660423279	135.8352
54.6327860355377	134.8754
54.6484160423279	121.4355
54.6640360355377	96.36292
54.6796660423279	63.40222
54.695296049118	28.15282
54.7109160423279	-3.800354
54.726546049118	-28.72366
54.7421660423279	-45.71477
54.757796049118	-56.45448
54.7734160423279	-63.90834
54.789046049118	-70.75742
54.8046760559082	-78.31006
54.820296049118	-86.43277
54.8359260559082	-94.23642
54.851546049118	-100.87
54.8671760559082	-106.1223
54.882796049118	-110.2467
54.8984260559082	-113.5359
54.9140560626984	-115.8085
54.9296760559082	-116.2996
54.9453060626984	-113.947
54.9609260559082	-108.0094
54.9765560626984	-98.61072
54.9921760559082	-86.92563
55.0078060626984	-74.89157
55.0234360694885	-64.60974
55.0390560626984	-57.55493
55.0546860694885	-54.08807
55.0703060626984	-53.47318
55.0859360694885	-54.3222
55.1015560626984	-55.27466
55.1171860694885	-55.57428
55.1328160762787	-55.21317
55.1484360694885	-54.70789
55.1640660762787	-54.5546
55.1796860694885	-54.78192
55.1953160762787	-54.82364
55.2109360694885	-53.78024
55.2265660762787	-50.96814
55.2421960830688	-46.32205
55.2578160762787	-40.57574
55.2734460830688	-34.9158
55.2890660762787	-30.55054
55.3046960830688	-28.19327
55.3203160762787	-27.88867
55.3359460830688	-29.15588
55.351576089859	-31.18332
55.3671960830688	-33.20236
55.382826089859	-34.61765
55.3984460830688	-35.07254
55.414076089859	-34.40045
55.4296960830688	-32.64648
55.445326089859	-29.98492
55.4609560966492	-26.67822
55.476576089859	-23.0267
55.4922060966492	-19.27502
55.507826089859	-15.58813
55.5234560966492	-12.06573
55.539076089859	-8.803894
55.5547060966492	-5.901428
55.5703361034393	-3.47699
55.5859560966492	-1.596497
55.6015861034393	-0.2351379
55.6172060966492	0.7062988
55.6328361034393	1.311218
55.6484560966492	1.62442
55.6640861034393	1.61676
55.6797161102295	1.24231
55.6953361034393	0.5093079
55.7109661102295	-0.5114746
55.7265861034393	-1.709778
55.7422161102295	-2.946259
55.7578361034393	-4.139252
55.7734661102295	-5.251404
55.7890961170197	-6.30954
55.8047161102295	-7.360199
55.8203461170197	-8.476074
55.8359661102295	-9.702942
55.8515961170197	-11.04523
55.8672161102295	-12.45889
55.8828461170197	-13.88977
55.8984761238098	-15.2948
55.9140961170197	-16.6366
55.9297261238098	-17.88348
55.9453461170197	-18.95938
55.9609761238098	-19.75067
55.9765961170197	-20.13498
55.9922261238098	-20.04156
56.0078561306	-19.55472
56.0234761238098	-18.89474
56.0391061306	-18.42648
56.0547261238098	-18.46973
56.0703561306	-19.24231
56.0859761238098	-20.70291
56.1016061306	-22.58322
56.1172361373901	-24.39221
56.1328561306	-25.57153
56.1484861373901	-25.66339
56.1641061306	-24.44934
56.1797361373901	-22.04422
56.1953561306	-18.8277
56.2109861373901	-15.30914
56.2266161441803	-11.9855
56.2422361373901	-9.220245
56.2578661441803	-7.174133
56.2734861373901	-5.875275
56.2891161441803	-5.234711
56.3047361373901	-5.114899
56.3203661441803	-5.351746
56.3359961509705	-5.74411
56.3516161441803	-6.09613
56.3672461509705	-6.253906
56.3828661441803	-6.174927
56.3984961509705	-5.931335
56.4141161441803	-5.700287
56.4297461509705	-5.682831
56.4453761577606	-6.003082
56.4609961509705	-6.63504
56.4766261577606	-7.431946
56.4922461509705	-8.158752
56.5078761577606	-8.604767
56.5235061645508	-8.667664
56.5391261577606	-8.366821
56.5547561645508	-7.817078
56.5703761577606	-7.190338
56.5860061645508	-6.584442
56.6016261577606	-5.989014
56.6172561645508	-5.298065
56.6328859329224	-4.37207
56.6485061645508	-3.114899
56.6641359329224	-1.55191
56.6797561645508	0.1767273
56.6953859329224	1.848297
56.7110061645508	3.276611
56.7266359329224	4.385468
56.7422659397125	5.250946
56.7578859329224	6.052933
56.7735159397125	6.994995
56.7891359329224	8.22377
56.8047659397125	9.748779
56.8203859329224	11.45132
56.8360159397125	13.12604
56.8516459465027	14.52715
56.8672659397125	15.46478
56.8828959465027	15.85269
56.8985159397125	15.7438
56.9141459465027	15.35971
56.9297659397125	15.07118
56.9453959465027	15.27516
56.9610259532928	16.28278
56.9766459465027	18.18826
56.9922759532928	20.77792
57.0078959465027	23.60208
57.0235259532928	26.12328
57.0391459465027	27.92844
57.0547759532928	28.88443
57.070405960083	29.10654
57.0860259532928	28.82996
57.101655960083	28.26326
57.1172759532928	27.48041
57.132905960083	26.43628
57.1485259532928	25.08125
57.164155960083	23.45433
57.1797859668732	21.71381
57.195405960083	20.06859
57.2110359668732	18.69986
57.226655960083	17.63716
57.2422859668732	16.79182
57.257905960083	15.98885
57.2735359668732	15.03549
57.2891659736633	13.81294
57.3047859668732	12.31738
57.3204159736633	10.65245
57.3360359668732	8.968155
57.3516659736633	7.410614
57.3672859668732	6.008072
57.3829159736633	4.691238
57.3985459804535	3.326736
57.4141659736633	1.774445
57.4297959804535	0.01152802
57.4454159736633	-1.880516
57.4610459804535	-3.747688
57.4766659736633	-5.454277
57.4922959804535	-6.950607
57.5079259872437	-8.282578
57.5235459804535	-9.534462
57.5391759872437	-10.76021
57.5547959804535	-11.95541
57.5704259872437	-13.07264
57.5860459804535	-14.05739
57.6016759872437	-14.87054
57.6173059940338	-15.44511
57.6329259872437	-15.68353
57.6485559940338	-15.4408
57.6641759872437	-14.5232
57.6798059940338	-12.7787
57.6954259872437	-10.19353
57.7110559940338	-6.909515
57.726686000824	-3.225266
57.7423059940338	0.4749756
57.757936000824	3.85788
57.7735559940338	6.666885
57.789186000824	8.763657
57.8048059940338	10.10533
57.820436000824	10.74342
57.8360660076141	10.7907
57.851686000824	10.45366
57.8673160076141	9.968147
57.882936000824	9.562134
57.8985660076141	9.395065
57.914186000824	9.517845
57.9298160076141	9.8741
57.9454460144043	10.34054
57.9610660076141	10.78243
57.9766960144043	11.07891
57.9923160076141	11.15553
58.0079460144043	10.9505
58.0235660076141	10.44429
58.0391960144043	9.698612
58.0548260211945	8.859184
58.0704460144043	8.117847
58.0860760211945	7.593204
58.1016960144043	7.251335
58.1173260211945	6.890179
58.1329460144043	6.268204
58.1485760211945	5.232609
58.1642060279846	3.868069
58.1798260211945	2.435093
58.1954560279846	1.23625
58.2110760211945	0.4337196
58.2267060279846	-0.04412842
58.2423260211945	-0.4671478
58.2579560279846	-1.103577
58.2735860347748	-2.115955
58.2892060279846	-3.436592
58.3048360347748	-4.767189
58.3204560279846	-5.677395
58.3360860347748	-5.689629
58.3517060279846	-4.375385
58.3673360347748	-1.486717
58.3829660415649	2.947874
58.3985860347748	8.559271
58.4142160415649	14.65303
58.4298360347748	20.40885
58.4454660415649	25.12737
58.4610860347748	28.43837
58.4767160415649	30.423
58.4923460483551	31.49215
58.5079660415649	32.15287
58.5235960483551	32.74084
58.5392160415649	33.29384
58.5548460483551	33.52733
58.5704660415649	33.02026
58.5860960483551	31.39531
58.6017260551453	28.49643
58.6173460483551	24.46327
58.6329760551453	19.66405
58.6485960483551	14.54585
58.6642260551453	9.486633
58.6798460483551	4.686848
58.6954760551453	0.1189289
58.7111060619354	-4.342505
58.7267260551453	-8.825511
58.7423560619354	-13.38319
58.7579760551453	-17.93765
58.7736060619354	-22.41314
58.7892360687256	-26.81352
58.8048560619354	-31.24341
58.8204860687256	-35.90793
58.8361060619354	-41.02303
58.8517360687256	-46.69189
58.8673560619354	-52.85664
58.8829860687256	-59.28203
58.8986160755157	-65.60289
58.9142360687256	-71.4472
58.9298660755157	-76.55272
58.9454860687256	-80.80511
58.9611160755157	-84.31161
58.9767360687256	-87.30703
58.9923660755157	-90.0873
59.0079960823059	-92.93071
59.0236160755157	-95.97421
59.0392460823059	-99.08734
59.0548660755157	-101.8376
59.0704960823059	-103.5035
59.0861160755157	-103.1376
59.1017460823059	-99.8213
59.1173760890961	-92.92432
59.1329960823059	-82.264
59.1486260890961	-68.19835
59.1642460823059	-51.49838
59.1798760890961	-33.1739
59.1954960823059	-14.32246
59.2111260890961	3.988167
59.2267560958862	20.83933
59.2423760890961	35.53297
59.2580060958862	47.68239
59.2736260890961	57.26939
59.2892560958862	64.59065
59.3048760890961	70.15987
59.3205060958862	74.51685
59.3361361026764	78.06856
59.3517560958862	81.01698
59.3673861026764	83.39413
59.3830060958862	85.15192
59.3986361026764	86.24413
59.4142560958862	86.68018
59.4298861026764	86.52969
59.4455161094666	85.90707
59.4611361026764	84.92992
59.4767661094666	83.68436
59.4923861026764	82.19835
59.5080161094666	80.40588
59.5236361026764	78.12358
59.5392661094666	75.14507
59.5548961162567	71.31366
59.5705161094666	66.59807
59.5861461162567	61.10637
59.6017661094666	55.09355
59.6173961162567	48.83992
59.6330161094666	42.6002
59.6486461162567	36.55038
59.6642761230469	30.7849
59.6798961162567	25.36867
59.6955261230469	20.399
59.7111461162567	16.01794
59.7267761230469	12.33784
59.7423961162567	9.353409
59.7580261230469	6.904083
59.773656129837	4.711838
59.7892761230469	2.502853
59.804906129837	0.0891571
59.8205261230469	-2.553116
59.836156129837	-5.320282
59.8517761230469	-8.020096
59.867406129837	-10.401
59.8830361366272	-12.11148
59.898656129837	-12.74486
59.9142861366272	-11.91797
59.929906129837	-9.433136
59.9455361366272	-5.487656
59.961156129837	-0.643631
59.9767861366272	4.258469
59.9924161434174	8.413696
60.0080361366272	11.29973
60.0236661434174	12.84554
60.0392861366272	13.34355
60.0549161434174	13.23218
60.0705361366272	12.91217
60.0861661434174	12.55588
60.1017961502075	12.18091
60.1174161434174	11.7243
60.1330461502075	11.15282
60.1486661434174	10.51584
60.1642961502075	9.900085
60.1799161434174	9.366287
60.1955461502075	8.878983
60.2111761569977	8.358948
60.2267961502075	7.700653
60.2424261569977	6.832901
60.2580461502075	5.764175
60.2736761569977	4.552704
60.2892961502075	3.306152
60.3049261569977	2.144333
60.3205561637878	1.194199
60.3361761569977	0.5355377
60.3518061637878	0.2060547
60.3674261569977	0.144455
60.3830561637878	0.180954
60.3986761569977	0.07771301
60.4143061637878	-0.4034119
60.4299359321594	-1.385376
60.4455561637878	-2.842819
60.4611859321594	-4.563065
60.4768061637878	-6.286545
60.4924359321594	-7.763474
60.5080561637878	-8.876068
60.5236859321594	-9.632294
60.5393159389496	-10.12852
60.5549359321594	-10.50819
60.5705659389496	-10.87851
60.5861859321594	-11.31064
60.6018159389496	-11.83951
60.6174359321594	-12.49008
60.6330659389496	-13.2318
60.6486959457397	-13.96321
60.6643159389496	-14.4433
60.6799459457397	-14.32581
60.6955659389496	-13.28934
60.7111959457397	-11.17119
60.7268159389496	-8.08931
60.7424459457397	-4.451187
60.7580759525299	-0.8252106
60.7736959457397	2.269775
60.7893259525299	4.531296
60.8049459457397	5.991074
60.8205759525299	6.945877
60.8361959457397	7.756073
60.8518259525299	8.646637
60.8674559593201	9.648193
60.8830759525299	10.59387
60.8987059593201	11.27888
60.9143259525299	11.66615
60.9299559593201	11.94574
60.9455759525299	12.49051
60.9612059593201	13.7045
60.9768359661102	15.76508
60.9924559593201	18.50957
61.0080859661102	21.45964
61.0237059593201	24.04301
61.0393359661102	25.83813
61.0549559593201	26.84129
61.0705859661102	27.47313
61.0862159729004	28.42303
61.1018359661102	30.30995
61.1174659729004	33.33195
61.1330859661102	37.12464
61.1487159729004	40.83997
61.1643359661102	43.48523
61.1799659729004	44.38077
61.1955959796906	43.51563
61.2112159729004	41.61488
61.2268459796906	39.98154
61.2424659729004	39.99645
61.2580959796906	42.46396
61.2737159729004	47.23503
61.2893459796906	53.17145
61.3049759864807	58.60006
61.3205959796906	61.97513
61.3362259864807	62.45899
61.3518459796906	60.12376
61.3674759864807	55.92266
61.3831059932709	51.40848
61.3987259864807	48.27626
61.4143559932709	48.08432
61.4299759864807	51.81331
61.4456059932709	59.29447
61.4612259864807	68.68259
61.4768559932709	76.35894
61.492486000061	77.72612
61.5081059932709	68.87923
61.523736000061	48.4609
61.5393559932709	18.68362
61.554986000061	-15.06728
61.5706059932709	-46.16218
61.586236000061	-69.18022
61.6018660068512	-81.6858
61.617486000061	-84.53305
61.6331160068512	-80.72888
61.648736000061	-73.67812
61.6643660068512	-65.84229
61.679986000061	-58.32909
61.6956160068512	-51.33023
61.7112460136414	-44.97686
61.7268660068512	-39.72898
61.7424960136414	-36.25184
61.7581160068512	-34.9472
61.7737460136414	-35.52537
61.7893660068512	-36.95617
61.8049960136414	-37.83781
61.8206260204315	-37.02103
61.8362460136414	-34.21602
61.8518760204315	-30.36345
61.8674960136414	-27.35388
61.8831260204315	-27.23466
61.8987460136414	-31.25572
61.9143760204315	-39.12714
61.9300060272217	-49.0466
61.9456260204315	-58.43251
61.9612560272217	-65.06554
61.9768760204315	-68.09901
61.9925060272217	-68.3701
62.0081260204315	-67.83676
62.0237560272217	-68.51259
62.0393860340118	-71.47214
62.0550060272217	-76.39087
62.0706360340118	-81.84636
62.0862560272217	-86.13672
62.1018860340118	-88.13765
62.1175060272217	-87.72841
62.1331360340118	-85.65117
62.148766040802	-82.90797
62.1643860340118	-80.13377
62.180016040802	-77.23819
62.1956360340118	-73.44753
62.211266040802	-67.86467
62.2268860340118	-59.96736
62.242516040802	-49.91898
62.2581460475922	-38.54063
62.273766040802	-26.93672
62.2893960475922	-16.03903
62.305016040802	-6.347321
62.3206460475922	2.098923
62.336266040802	9.500137
62.3518960475922	15.96344
62.3675260543823	21.37411
62.3831460475922	25.46349
62.3987760543823	27.97978
62.4143960475922	28.93857
62.4300260543823	28.73047
62.4456460475922	28.03799
62.4612760543823	27.60869
62.4769060611725	27.98244
62.4925260543823	29.26114
62.5081560611725	31.08063
62.5237760543823	32.80824
62.5394060611725	33.76913
62.5550260543823	33.55693
62.5706560611725	32.16275
62.5862860679626	29.96213
62.6019060611725	27.53069
62.6175360679626	25.37929
62.6331560611725	23.75623
62.6487860679626	22.58904
62.6644060611725	21.55853
62.6800360679626	20.25674
62.6956660747528	18.39249
62.7112860679626	15.8886
62.7269160747528	12.86404
62.7425360679626	9.598526
62.7581660747528	6.431519
62.7737860679626	3.700775
62.7894160747528	1.665405
62.805046081543	0.3957062
62.8206660747528	-0.2824249
62.836296081543	-0.7964478
62.8519160747528	-1.643021
62.867546081543	-3.260117
62.8831660747528	-5.752548
62.898796081543	-8.831543
62.9144260883331	-11.85402
62.930046081543	-14.02007
62.9456760883331	-14.66425
62.961296081543	-13.4892
62.9769260883331	-10.67354
62.992546081543	-6.773605
63.0081760883331	-2.594818
63.0238060951233	1.128677
63.0394260883331	3.867065
63.0550560951233	5.433502
63.0706760883331	5.975189
63.0863060951233	5.85582
63.1019260883331	5.479431
63.1175560951233	5.181854
63.1331861019135	5.123413
63.1488060951233	5.25811
63.1644361019135	5.451599
63.1800560951233	5.548958
63.1956861019135	5.449135
63.2113060951233	5.159103
63.2269361019135	4.776382
63.2425661087036	4.437225
63.2581861019135	4.27594
63.2738161087036	4.379395
63.2894361019135	4.741959
63.3050661087036	5.307709
63.3206861019135	5.956505
63.3363161087036	6.524925
63.3519461154938	6.878525
63.3675661087036	6.910637
63.3831961154938	6.583504
63.3988161087036	5.940323
63.4144461154938	5.089005
63.4300661087036	4.126923
63.4456961154938	3.124733
63.4613261222839	2.061974
63.4769461154938	0.8642044
63.4925761222839	-0.5169373
63.5081961154938	-2.025208
63.5238261222839	-3.464905
63.5394461154938	-4.55246
63.5550761222839	-5.04734
63.5707061290741	-4.867966
63.5863261222839	-4.109573
63.6019561290741	-3.049644
63.6175761222839	-1.979874
63.6332061290741	-1.122635
63.6488361358643	-0.5406265
63.6644561290741	-0.1318588
63.6800861358643	0.3501129
63.6957061290741	1.236549
63.7113361358643	2.870758
63.7269561290741	5.551376
63.7425861358643	9.316093
63.7582161426544	13.8887
63.7738361358643	18.5856
63.7894661426544	22.50787
63.8050861358643	24.79662
63.8207161426544	24.99215
63.8363361358643	23.18771
63.8519661426544	19.97603
63.8675961494446	16.14845
63.8832161426544	12.32809
63.8988461494446	8.781151
63.9144661426544	5.421722
63.9300961494446	2.016739
63.9457161426544	-1.572899
63.9613461494446	-5.243095
63.9769761562347	-8.64164
63.9925961494446	-11.3398
64.0082261562347	-13.02264
64.0238461494446	-13.66547
64.0394761562347	-13.5527
64.0550961494446	-13.17752
64.0707261562347	-13.00355
64.0863561630249	-13.269
64.1019761562347	-13.86899
64.1176061630249	-14.41873
64.1332261562347	-14.43736
64.1488561630249	-13.61566
64.1644761562347	-11.99342
64.1801061630249	-9.944542
64.1957359313965	-7.999931
64.2113561630249	-6.556068
64.2269859313965	-5.676918
64.2426061630249	-5.12191
64.2582359313965	-4.529549
64.2738561630249	-3.662575
64.2894859313965	-2.512138
64.3051159381866	-1.251297
64.3207359313965	-0.03585052
64.3363659381866	1.039406
64.3519859313965	1.905083
64.3676159381866	2.365593
64.3832359313965	1.984779
64.3988659381866	0.2098923
64.4144959449768	-3.306503
64.4301159381866	-8.36467
64.4457459449768	-14.08639
64.4613659381866	-19.14737
64.4769959449768	-22.27069
64.4926159381866	-22.72654
64.5082459449768	-20.58041
64.523875951767	-16.61504
64.5394959449768	-11.91259
64.555125951767	-7.435982
64.5707459449768	-3.750946
64.586375951767	-1.018921
64.6019959449768	0.8779297
64.617625951767	2.127098
64.6332559585571	2.892624
64.648875951767	3.290489
64.6645059585571	3.451988
64.680125951767	3.561447
64.6957559585571	3.827667
64.711375951767	4.426369
64.7270059585571	5.3992
64.7426359653473	6.595505
64.7582559585571	7.704865
64.7738859653473	8.358536
64.7895059585571	8.338829
64.8051359653473	7.627831
64.8207559585571	6.457748
64.8363859653473	5.145752
64.8520159721375	3.93943
64.8676359653473	2.882607
64.8832659721375	1.817383
64.8988859653473	0.4485397
64.9145159721375	-1.501152
64.9301359653473	-4.173073
64.9457659721375	-7.520454
64.9613959789276	-11.30012
64.9770159721375	-15.17582
64.9926459789276	-18.79453
65.0082659721375	-21.85878
65.0238959789276	-24.15137
65.0395159721375	-25.57224
65.0551459789276	-26.07393
65.0707759857178	-25.6611
65.0863959789276	-24.3869
65.1020259857178	-22.35612
65.1176459789276	-19.73093
65.1332759857178	-16.73376
65.1488959789276	-13.61519
65.1645259857178	-10.55787
65.1801559925079	-7.611923
65.1957759857178	-4.650314
65.2114059925079	-1.407669
65.2270259857178	2.40464
65.2426559925079	6.965096
65.2582759857178	12.2503
65.2739059925079	18.00069
65.2895359992981	23.78098
65.3051559925079	29.09232
65.3207859992981	33.48828
65.3364059925079	36.67539
65.3520359992981	38.55741
65.3676559925079	39.18009
65.3832859992981	38.67069
65.3989160060883	37.17158
65.4145359992981	34.86814
65.4301660060883	32.01452
65.4457859992981	28.99118
65.4614160060883	26.28158
65.4770359992981	24.34097
65.4926660060883	23.46925
65.5082960128784	23.63846
65.5239160060883	24.52131
65.5395460128784	25.59733
65.5551660060883	26.39789
65.5707960128784	26.68399
65.5864160060883	26.49351
65.6020460128784	26.0293
65.6176760196686	25.45998
65.6332960128784	24.75414
65.6489260196686	23.68987
65.6645460128784	22.01202
65.6801760196686	19.57328
65.6957960128784	16.49071
65.7114260196686	13.06963
65.7270560264587	9.680458
65.7426760196686	6.568642
65.7583060264587	3.787735
65.7739260196686	1.207436
65.7895560264587	-1.344208
65.8051760196686	-3.9552
65.8208060264587	-6.599182
65.8364360332489	-9.147705
65.8520560264587	-11.44151
65.8676860332489	-13.3438
65.8833060264587	-14.7504
65.8989360332489	-15.56728
65.9145560264587	-15.71137
65.9301860332489	-15.13583
65.9458160400391	-13.81644
65.9614360332489	-11.8096
65.9770660400391	-9.260124
65.9926860332489	-6.398399
66.0083160400391	-3.562523
66.0239360332489	-1.148483
66.0395660400391	0.4588776
66.0551960468292	1.015358
66.0708160400391	0.4692993
66.0864460468292	-0.9621048
66.1020660400391	-2.905663
66.1176960468292	-4.916679
66.1333260536194	-6.618286
66.1489460468292	-7.805954
66.1645760536194	-8.468819
66.1801960468292	-8.732185
66.1958260536194	-8.806084
66.2114460468292	-8.926186
66.2270760536194	-9.290886
66.2427060604095	-10.06684
66.2583260536194	-11.31153
66.2739560604095	-12.94277
66.2895760536194	-14.73851
66.3052060604095	-16.34414
66.3208260536194	-17.425
66.3364560604095	-17.78621
66.3520860671997	-17.49957
66.3677060604095	-16.85748
66.3833360671997	-16.33463
66.3989560604095	-16.34048
66.4145860671997	-17.06013
66.4302060604095	-18.38939
66.4458360671997	-19.98043
66.4614660739899	-21.43579
66.4770860671997	-22.48664
66.4927160739899	-23.13132
66.5083360671997	-23.54756
66.5239660739899	-24.02676
66.5395860671997	-24.80143
66.5552160739899	-25.93957
66.57084608078	-27.33163
66.5864660739899	-28.67778
66.60209608078	-29.59238
66.6177160739899	-29.65599
66.63334608078	-28.58378
66.6489660739899	-26.26477
66.66459608078	-22.87362
66.6802260875702	-18.82429
66.69584608078	-14.64536
66.7114760875702	-10.84212
66.72709608078	-7.723503
66.7427260875702	-5.345726
66.75834608078	-3.460327
66.7739760875702	-1.70105
66.7896060943604	0.3060074
66.8052260875702	2.752899
66.8208560943604	5.575424
66.8364760875702	8.489372
66.8521060943604	11.09313
66.8677260875702	13.11314
66.8833560943604	14.46478
66.8989861011505	15.31294
66.9146060943604	15.90146
66.9302361011505	16.42866
66.9458560943604	16.89668
66.9614861011505	17.15263
66.9771060943604	16.97835
66.9927361011505	16.18409
67.0083661079407	14.69504
67.0239861011505	12.53465
67.0396161079407	9.784157
67.0552361011505	6.599258
67.0708661079407	3.203499
67.0864861011505	-0.07714081
67.1021161079407	-2.912758
67.1177461147308	-5.02565
67.1333661079407	-6.340195
67.1489961147308	-6.972881
67.1646161079407	-7.157623
67.1802461147308	-7.153637
67.1958661079407	-7.143475
67.2114961147308	-7.223351
67.227126121521	-7.42205
67.2427461147308	-7.743523
67.258376121521	-8.087414
67.2739961147308	-8.274456
67.289626121521	-8.095001
67.3052461147308	-7.446457
67.320876121521	-6.47094
67.3365061283112	-5.536671
67.352126121521	-5.102261
67.3677561283112	-5.433556
67.383376121521	-6.361866
67.3990061283112	-7.244808
67.414626121521	-7.220646
67.4302561283112	-5.576916
67.4458861351013	-2.121346
67.4615061283112	2.721041
67.4771361351013	8.086275
67.4927561283112	13.04473
67.5083861351013	16.93274
67.5240061283112	19.57759
67.5396361351013	21.17354
67.5552661418915	22.11868
67.5708861351013	22.75058
67.5865161418915	23.21878
67.6021361351013	23.42623
67.6177661418915	23.18984
67.6333861351013	22.38399
67.6490161418915	21.08018
67.6646461486816	19.60231
67.6802661418915	18.40521
67.6958961486816	17.8752
67.7115161418915	18.12972
67.7271461486816	18.94266
67.7427661418915	19.79337
67.7583961486816	20.14513
67.7740261554718	19.65331
67.7896461486816	18.27071
67.8052761554718	16.23979
67.8208961486816	13.8862
67.8365261554718	11.50225
67.8521461486816	9.264215
67.8677761554718	7.259031
67.883406162262	5.566443
67.8990261554718	4.281384
67.914656162262	3.470238
67.9302761554718	3.078852
67.945906162262	2.927264
67.9615261554718	2.739917
67.977156162262	2.268401
67.9927859306335	1.4172
68.008406162262	0.2506266
68.0240359306335	-1.033195
68.039656162262	-2.231115
68.0552859306335	-3.227852
68.070906162262	-4.045846
68.0865359306335	-4.808373
68.1021659374237	-5.720628
68.1177859306335	-6.975176
68.1334159374237	-8.726696
68.1490359306335	-11.04096
68.1646659374237	-13.82276
68.1802859306335	-16.73358
68.1959159374237	-19.20697
68.2115459442139	-20.54253
68.2271659374237	-20.09184
68.2427959442139	-17.50091
68.2584159374237	-12.90032
68.2740459442139	-6.888613
68.2896659374237	-0.4133253
68.3052959442139	5.553051
68.320925951004	10.30205
68.3365459442139	13.58899
68.352175951004	15.60263
68.3677959442139	16.77173
68.383425951004	17.54483
68.3990459442139	18.17062
68.414675951004	18.65287
68.4303059577942	18.86842
68.445925951004	18.69333
68.4615559577942	18.09573
68.477175951004	17.15654
68.4928059577942	16.02254
68.5084359645844	14.81154
68.5240559577942	13.58113
68.5396859645844	12.30681
68.5553059577942	10.887
68.5709359645844	9.230869
68.5865559577942	7.276863
68.6021859645844	5.041735
68.6178159713745	2.633858
68.6334359645844	0.2271976
68.6490659713745	-1.979318
68.6646859645844	-3.842033
68.6803159713745	-5.306288
68.6959359645844	-6.469067
68.7115659713745	-7.490936
68.7271959781647	-8.574793
68.7428159713745	-9.873886
68.7584459781647	-11.44644
68.7740659713745	-13.25285
68.7896959781647	-15.169
68.8053159713745	-16.98049
68.8209459781647	-18.4436
68.8365759849548	-19.32537
68.8521959781647	-19.45767
68.8678259849548	-18.84415
68.8834459781647	-17.68177
68.8990759849548	-16.36339
68.9146959781647	-15.39409
68.9303259849548	-15.27715
68.945955991745	-16.31187
68.9615759849548	-18.47585
68.977205991745	-21.38441
68.9928259849548	-24.3059
69.008455991745	-26.39385
69.0240759849548	-26.89714
69.039705991745	-25.40755
69.0553359985352	-21.9688
69.070955991745	-17.06778
69.0865859985352	-11.48105
69.102205991745	-6.046785
69.1178359985352	-1.497883
69.133455991745	1.734074
69.1490859985352	3.556837
69.1647160053253	4.231936
69.1803359985352	4.284576
69.1959660053253	4.322478
69.2115859985352	4.81587
69.2272160053253	5.965306
69.2428359985352	7.633029
69.2584660053253	9.477237
69.2740960121155	11.13251
69.2897160053253	12.3876
69.3053460121155	13.22748
69.3209660053253	13.78113
69.3365960121155	14.15758
69.3522160053253	14.35053
69.3678460121155	14.24471
69.3834760189056	13.73366
69.3990960121155	12.8183
69.4147260189056	11.64716
69.4303460121155	10.43015
69.4459760189056	9.325595
69.4615960121155	8.385166
69.4772260189056	7.526793
69.4928560256958	6.644839
69.5084760189056	5.665753
69.5241060256958	4.590037
69.5397260189056	3.467603
69.5553560256958	2.354739
69.5709760189056	1.317969
69.5866060256958	0.3988428
69.602236032486	-0.3178868
69.6178560256958	-0.7981377
69.633486032486	-1.001008
69.6491060256958	-0.9747314
69.664736032486	-0.8441162
69.6803560256958	-0.8191576
69.695986032486	-1.147728
69.7116160392761	-2.016433
69.727236032486	-3.455667
69.7428660392761	-5.264917
69.758486032486	-7.043199
69.7741160392761	-8.27582
69.789736032486	-8.5086
69.8053660392761	-7.519388
69.8209960460663	-5.386263
69.8366160392761	-2.428621
69.8522460460663	0.9219694
69.8678660392761	4.29443
69.8834960460663	7.46126
69.8991160392761	10.30233
69.9147460460663	12.77412
69.9303760528564	14.76313
69.9459960460663	16.13263
69.9616260528564	16.75636
69.9772460460663	16.59489
69.9928760528564	15.69507
70.0084960460663	14.22171
70.0241260528564	12.41503
70.0397560596466	10.5756
70.0553760528564	9.01722
70.0710060596466	7.973798
70.0866260528564	7.546157
70.1022560596466	7.636152
70.1178760528564	7.954195
70.1335060596466	8.075844
70.1491360664368	7.628352
70.1647560596466	6.431107
70.1803860664368	4.561357
70.1960060596466	2.307748
70.2116360664368	0.009246826
70.2272560596466	-2.091935
70.2428860664368	-3.920314
70.2585160732269	-5.534359
70.2741360664368	-7.035906
70.2897660732269	-8.453575
70.3053860664368	-9.688416
70.3210160732269	-10.58372
70.3366360664368	-11.00868
70.3522660732269	-10.98904
70.3678960800171	-10.75903
70.3835160732269	-10.70821
70.3991460800171	-11.26594
70.4147660732269	-12.69097
70.4303960800171	-14.96612
70.4460160732269	-17.70961
70.4616460800171	-20.27419
70.4772760868073	-21.89997
70.4928960800171	-21.94725
70.5085260868073	-20.11433
70.5241460800171	-16.53986
70.5397760868073	-11.76165
70.5553960800171	-6.538925
70.5710260868073	-1.62062
70.5866560935974	2.454836
70.6022760868073	5.46353
70.6179060935974	7.487992
70.6335260868073	8.752346
70.6491560935974	9.518012
70.6647861003876	9.965911
70.6804060935974	10.17102
70.6960361003876	10.16526
70.7116560935974	9.981447
70.7272861003876	9.712858
70.7429060935974	9.509156
70.7585361003876	9.556414
70.7741661071777	10.00391
70.7897861003876	10.86296
70.8054161071777	11.99054
70.8210361003876	13.11745
70.8366661071777	13.95893
70.8522861003876	14.36492
70.8679161071777	14.38477
70.8835461139679	14.24049
70.8991661071777	14.20825
70.9147961139679	14.47266
70.9304161071777	15.03785
70.9460461139679	15.7553
70.9616661071777	16.43823
70.9772961139679	16.95362
70.9929261207581	17.26035
71.0085461139679	17.38421
71.0241761207581	17.37875
71.0397961139679	17.28804
71.0554261207581	17.12595
71.0710461139679	16.84138
71.0866761207581	16.29994
71.1023061275482	15.25949
71.1179261207581	13.46598
71.1335561275482	10.74652
71.1491761207581	7.195198
71.1648061275482	3.190919
71.1804261207581	-0.6918504
71.1960561275482	-3.940402
71.2116861343384	-6.336908
71.2273061275482	-8.018826
71.2429361343384	-9.386365
71.2585561275482	-10.88049
71.2741861343384	-12.73283
71.2898061275482	-14.84366
71.3054361343384	-16.81514
71.3210661411285	-18.10123
71.3366861343384	-18.25488
71.3523161411285	-17.11768
71.3679361343384	-14.89305
71.3835661411285	-12.10531
71.3991861343384	-9.43325
71.4148161411285	-7.466841
71.4304461479187	-6.555887
71.4460661411285	-6.676882
71.4616961479187	-7.516712
71.4773161411285	-8.608591
71.4929461479187	-9.563698
71.5085661411285	-10.25108
71.5241961479187	-10.83569
71.5398261547089	-11.69851
71.5554461479187	-13.17368
71.5710761547089	-15.34789
71.5866961479187	-17.91205
71.6023261547089	-20.26219
71.6179461479187	-21.70377
71.6335761547089	-21.79235
71.649206161499	-20.48775
71.6648261547089	-18.19417
71.680456161499	-15.51972
71.6960761547089	-12.97757
71.711706161499	-10.76173
71.7273261547089	-8.761726
71.742956161499	-6.747374
71.7585859298706	-4.586311
71.774206161499	-2.459597
71.7898359298706	-0.8230114
71.805456161499	-0.195755
71.8210859298706	-0.9312267
71.836706161499	-2.991922
71.8523359298706	-5.976831
71.8679659366608	-9.279996
71.8835859298706	-12.34926
71.8992159366608	-14.89371
71.9148359298706	-16.93834
71.9304659366608	-18.73301
71.9460859298706	-20.57239
71.9617159366608	-22.62519
71.9773459434509	-24.82516
71.9929659366608	-26.88133
72.0085959434509	-28.35947
72.0242159366608	-28.75374
72.0398459434509	-27.6675
72.0554659366608	-24.87804
72.0710959434509	-20.54668
72.0867259502411	-15.21566
72.1023459434509	-9.76053
72.1179759502411	-5.058674
72.1335959434509	-1.609479
72.1492259502411	0.7407637
72.1648459434509	2.801938
72.1804759502411	5.642066
72.1961059570312	10.0152
72.2117259502411	15.95402
72.2273559570312	22.69465
72.2429759502411	29.07509
72.2586059570312	34.07827
72.2742259502411	37.30328
72.2898559570312	38.97591
72.3054859638214	39.69933
72.3211059570312	39.96635
72.3367359638214	39.89494
72.3523559570312	39.23168
72.3679859638214	37.59001
72.3836059570312	34.77674
72.3992359638214	30.94793
72.4148659706116	26.57947
72.4304859638214	22.26636
72.4461159706116	18.53321
72.4617359638214	15.64653
72.4773659706116	13.63215
72.4929859638214	12.3256
72.5086159706116	11.4378
72.5242459774017	10.65637
72.5398659706116	9.590597
72.5554959774017	7.88575
72.5711159706116	5.181231
72.5867459774017	1.238905
72.6023659706116	-3.973936
72.6179959774017	-10.18238
72.6336259841919	-16.79036
72.6492459774017	-22.95725
72.6648759841919	-27.79783
72.6804959774017	-30.62906
72.6961259841919	-31.17582
72.7117459774017	-29.6305
72.7273759841919	-26.60283
72.7430059909821	-22.90562
72.7586259841919	-19.29048
72.7742559909821	-16.23902
72.7898759841919	-13.88004
72.8055059909821	-12.0335
72.8211259841919	-10.37636
72.8367559909821	-8.633972
72.8523859977722	-6.713711
72.8680059909821	-4.698252
72.8836359977722	-2.818464
72.8992559909821	-1.258307
72.9148859977722	-0.0261116
72.9305059909821	1.082275
72.9461359977722	2.447472
