onset	BVP
-1.11495304107666	0.09658051
-1.09933304786682	-0.2125587
-1.08370304107666	-0.5648994
-1.0680730342865	-0.9095154
-1.05245304107666	-1.275856
-1.0368230342865	-1.766098
-1.02120304107666	-2.490784
-1.0055730342865	-3.537556
-0.98995304107666	-4.881905
-0.974323034286499	-6.40176
-0.958693027496338	-7.875206
-0.943073034286499	-9.021511
-0.927443027496338	-9.542175
-0.911823034286499	-9.187107
-0.896193027496338	-7.803196
-0.880573034286499	-5.397404
-0.864943027496338	-2.170204
-0.849313020706177	1.508301
-0.833693027496338	5.188263
-0.818063020706177	8.43869
-0.802443027496338	10.95446
-0.786813020706177	12.6083
-0.771193027496338	13.42395
-0.755563020706177	13.49744
-0.739933013916016	12.92701
-0.724313020706177	11.76306
-0.708683013916016	10.06429
-0.693063020706177	7.972111
-0.677433013916016	5.734165
-0.661813020706177	3.681625
-0.646183013916016	2.12175
-0.630553007125854	1.210011
-0.614933013916016	0.8929253
-0.599303007125854	0.9339714
-0.583683013916016	1.035336
-0.568053007125854	0.9910507
-0.552433013916016	0.7357063
-0.536803007125854	0.3557587
-0.521173000335693	-0.00749588
-0.505553007125854	-0.2653618
-0.489923000335693	-0.4297638
-0.474303007125854	-0.6204224
-0.458673000335693	-0.9791222
-0.443053007125854	-1.610001
-0.427423000335693	-2.556072
-0.411792993545532	-3.784828
-0.396173000335693	-5.215996
-0.380542993545532	-6.684368
-0.364923000335693	-7.982193
-0.349292993545532	-8.844555
-0.333662986755371	-9.001419
-0.318042993545532	-8.250484
-0.302412986755371	-6.544315
-0.286792993545532	-3.989353
-0.271162986755371	-0.8666382
-0.255542993545532	2.462643
-0.239912986755371	5.620663
-0.224283218383789	8.280426
-0.208662986755371	10.20115
-0.193033218383789	11.24111
-0.177412986755371	11.39474
-0.161783218383789	10.76907
-0.146162986755371	9.559387
-0.130533218383789	7.994762
-0.114903211593628	6.297283
-0.0992832183837891	4.648441
-0.0836532115936279	3.172401
-0.0680332183837891	1.96159
-0.0524032115936279	1.053043
-0.0367832183837891	0.443058
-0.0211532115936279	0.06485367
0.0100967884063721	-0.4337845
0.0257267951965332	-0.754673
0.0413467884063721	-1.164932
0.0569767951965332	-1.611961
0.0725967884063721	-2.009834
0.0882267951965332	-2.284573
0.103856801986694	-2.439365
0.119476795196533	-2.559326
0.135106801986694	-2.811729
0.150726795196533	-3.372433
0.166356801986694	-4.344624
0.181976795196533	-5.656479
0.197606801986694	-7.089054
0.213236808776855	-8.269215
0.228856801986694	-8.829298
0.244486808776855	-8.500578
0.260106801986694	-7.226645
0.275736808776855	-5.126059
0.291356801986694	-2.435692
0.306986808776855	0.5683517
0.322616815567017	3.629137
0.338236808776855	6.483841
0.353866815567017	8.874359
0.369486808776855	10.52621
0.385116815567017	11.23321
0.400736808776855	10.90793
0.416366815567017	9.649738
0.431996822357178	7.739353
0.447616815567017	5.543894
0.463246822357178	3.4258
0.478866815567017	1.627766
0.494496822357178	0.2464085
0.510116815567017	-0.7698193
0.525746822357178	-1.527298
0.541376829147339	-2.135197
0.556996822357178	-2.629786
0.572626829147339	-2.979542
0.588246822357178	-3.136158
0.603876829147339	-3.086626
0.619496822357178	-2.898245
0.635126829147339	-2.720716
0.6507568359375	-2.746815
0.666376829147339	-3.137947
0.6820068359375	-3.959604
0.697626829147339	-5.189972
0.7132568359375	-6.727558
0.728876829147339	-8.412771
0.7445068359375	-10.05213
0.760136842727661	-11.40405
0.7757568359375	-12.22293
0.791386842727661	-12.28144
0.8070068359375	-11.41603
0.822636842727661	-9.599722
0.8382568359375	-6.943975
0.853886842727661	-3.699293
0.869516849517822	-0.2154655
0.885136842727661	3.120102
0.900766849517822	5.974855
0.916386842727661	8.102278
0.932016849517822	9.395224
0.947636842727661	9.883871
0.978896856307983	8.974192
0.994516849517822	7.88117
1.01014685630798	6.517981
1.02576684951782	4.972252
1.04139685630798	3.349262
1.05701684951782	1.790852
1.07264685630798	0.4694424
1.08827686309814	-0.4617519
1.10389685630798	-0.9318581
1.11952686309814	-1.013321
1.13514685630798	-0.8539944
1.15077686309814	-0.6550903
1.16639685630798	-0.5811749
1.18202686309814	-0.7140884
1.19765686988831	-1.038061
1.21327686309814	-1.493719
1.22890686988831	-2.030994
1.24452686309814	-2.674959
1.26015686988831	-3.508884
1.27577686309814	-4.610559
1.29140686988831	-5.970406
1.30703687667847	-7.421432
1.32265686988831	-8.65336
1.33828687667847	-9.282551
1.35390686988831	-8.995943
1.36953687667847	-7.64674
1.38515686988831	-5.322172
1.40078687667847	-2.306303
1.41641688346863	1.004421
1.43203687667847	4.196905
1.44766688346863	6.936251
1.46328687667847	9.002361
1.47891688346863	10.28084
1.49453687667847	10.75379
1.51016688346863	10.4702
1.52579689025879	9.527639
1.54141688346863	8.065943
1.55704689025879	6.254028
1.57266688346863	4.283651
1.58829689025879	2.361759
1.60391688346863	0.6863976
1.61954689025879	-0.5875816
1.63517689704895	-1.384935
1.65079689025879	-1.733349
1.66642689704895	-1.746569
1.68204689025879	-1.593185
1.69767689704895	-1.423317
1.71329689025879	-1.309666
1.72892689704895	-1.247107
1.74455690383911	-1.188292
1.76017689704895	-1.128622
1.77580690383911	-1.155313
1.79142689704895	-1.444445
1.80705690383911	-2.182728
1.82267689704895	-3.43417
1.83830690383911	-5.03685
1.85393691062927	-6.607845
1.86955690383911	-7.647203
1.88518691062927	-7.706657
1.90080690383911	-6.550964
1.91643691062927	-4.258137
1.93206691741943	-1.169363
1.94768691062927	2.241463
1.96331691741943	5.53159
1.97893691062927	8.365412
1.99456691741943	10.55662
2.01018691062927	12.03989
2.02581691741943	12.79595
2.04144692420959	12.83872
2.05706691741943	12.18925
2.07269692420959	10.90905
2.08831691741943	9.1348
2.10394692420959	7.064692
2.11956691741943	4.945522
2.13519692420959	3.00614
2.15082693099976	1.432919
2.16644692420959	0.3074322
2.19769692420959	-0.7240887
2.21332693099976	-0.8820782
2.22894692420959	-0.9838943
2.24457693099976	-1.107924
2.26020693778992	-1.259258
2.27582693099976	-1.391497
2.29145693778992	-1.469313
2.30707693099976	-1.508087
2.32270693778992	-1.59663
2.33832693099976	-1.865686
2.35395693778992	-2.437597
2.36958694458008	-3.364231
2.38520693778992	-4.595343
2.40083694458008	-5.964922
2.41645693778992	-7.247129
2.43208694458008	-8.169662
2.44770693778992	-8.470146
2.46333694458008	-7.944973
2.47896695137024	-6.507427
2.49458694458008	-4.227047
2.51021695137024	-1.336393
2.52583694458008	1.820391
2.54146695137024	4.869287
2.55708694458008	7.502529
2.57271695137024	9.501511
2.5883469581604	10.77604
2.60396695137024	11.30548
2.6195969581604	11.11533
2.63521695137024	10.27184
2.6508469581604	8.891402
2.66646695137024	7.138328
2.6820969581604	5.217534
2.69772696495056	3.349022
2.7133469581604	1.70713
2.72897696495056	0.4280291
2.7445969581604	-0.4382286
2.76022696495056	-0.9057713
2.7758469581604	-1.058506
2.79147696495056	-1.044463
2.80710697174072	-1.019691
2.82272696495056	-1.106894
2.83835697174072	-1.365795
2.85397696495056	-1.764119
2.86960697174072	-2.229192
2.88522696495056	-2.706329
2.90085697174072	-3.188402
2.91648697853088	-3.744883
2.93210697174072	-4.483657
2.94773697853088	-5.478545
2.96335697174072	-6.729668
2.97898697853088	-8.13332
2.99460697174072	-9.481476
3.01023697853088	-10.51681
3.02586698532104	-10.95689
3.04148697853088	-10.56191
3.05711698532104	-9.181763
3.07273697853088	-6.815993
3.08836698532104	-3.654495
3.10398697853088	-0.04286623
3.11961698532104	3.563627
3.13524699211121	6.697067
3.15086698532104	8.997303
3.16649699211121	10.28786
3.18211698532104	10.56969
3.19774699211121	10.02642
3.21336698532104	8.88537
3.22899699211121	7.379293
3.24462699890137	5.691227
3.26024699211121	3.966355
3.27587699890137	2.347213
3.29149699211121	0.9838623
3.30712699890137	-0.008542657
3.32274699211121	-0.5913829
3.33837699890137	-0.8417315
3.35400700569153	-0.927182
3.36962699890137	-1.034614
3.38525700569153	-1.279849
3.40087699890137	-1.658054
3.41650700569153	-2.064306
3.43212699890137	-2.380494
3.44775700569153	-2.541383
3.46338701248169	-2.590207
3.47900700569153	-2.67113
3.49463701248169	-2.953187
3.51025700569153	-3.563415
3.52588701248169	-4.550083
3.54150700569153	-5.877952
3.55713701248169	-7.440784
3.57276678085327	-9.070571
3.58838701248169	-10.54755
3.60401678085327	-11.58958
3.61963701248169	-11.90623
3.63526678085327	-11.26079
3.65088701248169	-9.537404
3.66651678085327	-6.823306
3.68214678764343	-3.399549
3.69776678085327	0.3041449
3.71339678764343	3.81694
3.72901678085327	6.734167
3.74464678764343	8.788313
3.76026678085327	9.893453
3.77589678764343	10.10924
3.79152679443359	9.597046
3.80714678764343	8.556355
3.82277679443359	7.188294
3.83839678764343	5.656263
3.85402679443359	4.092362
3.86964678764343	2.606023
3.88527679443359	1.281246
3.90090680122375	0.1748648
3.91652679443359	-0.676785
3.93215680122375	-1.294023
3.94777679443359	-1.710998
3.96340680122375	-1.985089
3.97902679443359	-2.192801
3.99465680122375	-2.390529
4.01028680801392	-2.613043
4.02590680122375	-2.873154
4.04153680801392	-3.167791
4.05715680122375	-3.489874
4.07278680801392	-3.867492
4.08840680122375	-4.357473
4.10403680801392	-5.030798
4.11966681480408	-5.967723
4.13528680801392	-7.220338
4.15091681480408	-8.757269
4.16653680801392	-10.45941
4.18216681480408	-12.09439
4.19778680801392	-13.36378
4.21341681480408	-13.92992
4.22904682159424	-13.52381
4.24466681480408	-12.00575
4.26029682159424	-9.41169
4.27591681480408	-5.971187
4.29154682159424	-2.056606
4.30716681480408	1.881013
4.32279682159424	5.423937
4.3384268283844	8.246814
4.35404682159424	10.16537
4.38529682159424	11.30459
4.4009268283844	10.78456
4.41654682159424	9.792074
4.4321768283844	8.504179
4.44780683517456	7.084543
4.4634268283844	5.665206
4.47905683517456	4.369784
4.4946768283844	3.312336
4.51030683517456	2.589689
4.52593684196472	2.273264
4.54155683517456	2.363621
4.55718684196472	2.777336
4.57280683517456	3.351179
4.58843684196472	3.87235
4.60405683517456	4.128155
4.61968684196472	3.977778
4.63531684875488	3.370133
4.65093684196472	2.356169
4.66656684875488	1.074624
4.68218684196472	-0.3131723
4.69781684875488	-1.658339
4.71343684196472	-2.875414
4.72906684875488	-3.959422
4.74469685554504	-4.981165
4.76031684875488	-6.043908
4.77594685554504	-7.217267
4.79156684875488	-8.474049
4.80719685554504	-9.648892
4.82281684875488	-10.46168
4.83844685554504	-10.59452
4.85407686233521	-9.797861
4.86969685554504	-7.975248
4.88532686233521	-5.228535
4.90094685554504	-1.830151
4.91657686233521	1.8629
4.93219685554504	5.470309
4.94782686233521	8.635075
4.96345686912537	11.07154
4.97907686233521	12.59083
4.99470686912537	13.11463
5.01032686233521	12.70951
5.02595686912537	11.55768
5.04157686233521	9.890888
5.05720686912537	7.963145
5.07283687591553	6.007489
5.08845686912537	4.215819
5.10408687591553	2.740078
5.11970686912537	1.699472
5.13533687591553	1.137029
5.15095686912537	1.000879
5.16658687591553	1.177476
5.18221688270569	1.492304
5.19783687591553	1.806498
5.21346688270569	2.038575
5.22908687591553	2.136365
5.24471688270569	2.093503
5.26033687591553	1.884359
5.27596688270569	1.466124
5.29159688949585	0.8054895
5.30721688270569	-0.06617785
5.32284688949585	-1.054451
5.33846688270569	-2.026503
5.35409688949585	-2.881319
5.36971688270569	-3.612509
5.38534688949585	-4.302118
5.40097689628601	-5.105206
5.41659688949585	-6.147977
5.43222689628601	-7.432669
5.44784688949585	-8.821091
5.46347689628601	-10.05559
5.47909688949585	-10.81727
5.49472689628601	-10.8308
5.51035690307617	-9.915462
5.52597689628601	-8.019892
5.54160690307617	-5.225791
5.55722689628601	-1.74359
5.57285690307617	2.122132
5.58847689628601	5.975826
5.60410690307617	9.405323
5.61973690986633	12.065
5.63535690307617	13.7398
5.65098690986633	14.40138
5.66660690307617	14.15092
5.68223690986633	13.17282
5.69785690307617	11.66237
5.71348690986633	9.810701
5.72911691665649	7.781414
5.74473690986633	5.766797
5.76036691665649	3.954778
5.77598690986633	2.481621
5.79161691665649	1.417461
5.80723690986633	0.7360468
5.82286691665649	0.3621321
5.83849692344666	0.214572
5.85411691665649	0.2307978
5.86974692344666	0.3461533
5.88536691665649	0.4976254
5.90099692344666	0.6163092
5.91661691665649	0.5960188
5.93224692344666	0.3741217
5.94787693023682	-0.07616234
5.96349692344666	-0.7303448
5.97912693023682	-1.535438
5.99474692344666	-2.416605
6.01037693023682	-3.290421
6.02599692344666	-4.107551
6.04162693023682	-4.828198
6.05725693702698	-5.509951
6.07287693023682	-6.270009
6.08850693702698	-7.263221
6.10412693023682	-8.582835
6.11975693702698	-10.1609
6.13537693023682	-11.74344
6.15100693702698	-12.91684
6.16663694381714	-13.252
6.18225693702698	-12.42508
6.19788694381714	-10.36139
6.21350693702698	-7.247519
6.22913694381714	-3.483034
6.24475693702698	0.4530258
6.26038694381714	4.117035
6.2760169506073	7.206549
6.29163694381714	9.559889
6.3072669506073	11.11572
6.32288694381714	11.86064
6.3385169506073	11.81188
6.35413694381714	11.00041
6.3697669506073	9.514376
6.38539695739746	7.538723
6.4010169506073	5.344097
6.41664695739746	3.224302
6.4322669506073	1.438383
6.44789695739746	0.1285381
6.4635169506073	-0.6851921
6.47914695739746	-1.094049
6.49477696418762	-1.237301
6.51039695739746	-1.233164
6.52602696418762	-1.162888
6.54164695739746	-1.055819
6.55727696418762	-0.9367008
6.57289695739746	-0.8387451
6.58852696418762	-0.8642941
6.60415697097778	-1.133352
6.61977696418762	-1.743408
6.63540697097778	-2.678825
6.65102696418762	-3.803106
6.66665697097778	-4.897787
6.68227696418762	-5.799784
6.69790697097778	-6.507141
6.71353697776794	-7.189127
6.72915697097778	-8.101261
6.74478697776794	-9.401215
6.76040697097778	-11.0239
6.77603697776794	-12.63524
6.79166698455811	-13.76694
6.80728697776794	-13.95325
6.82291698455811	-12.9261
6.83853697776794	-10.67332
6.85416698455811	-7.43364
6.86978697776794	-3.603264
6.88541698455811	0.3857079
6.90104699134827	4.127876
6.91666698455811	7.319794
6.93229699134827	9.751902
6.94791698455811	11.33912
6.96354699134827	12.09892
6.97916698455811	12.11447
6.99479699134827	11.51432
7.01042699813843	10.43142
7.02604699134827	8.99976
7.04167699813843	7.346012
7.05729699134827	5.598331
7.07292699813843	3.874525
7.08854699134827	2.282196
7.10417699813843	0.9477043
7.11980700492859	-0.02133942
7.13542699813843	-0.5384083
7.15105700492859	-0.6140842
7.16667699813843	-0.3602905
7.18230700492859	0.006332397
7.19792699813843	0.2446327
7.21355700492859	0.1597099
7.22918701171875	-0.309433
7.24480700492859	-1.080284
7.26043701171875	-2.012829
7.27605700492859	-2.953077
7.29168701171875	-3.8281
7.30730700492859	-4.641104
7.32293701171875	-5.45414
7.33856678009033	-6.319401
7.35418701171875	-7.277777
7.36981678009033	-8.352123
7.38543701171875	-9.532763
7.40106678009033	-10.78705
7.41668701171875	-11.98734
7.43231678009033	-12.89722
7.44794678688049	-13.20308
7.46356678009033	-12.61031
7.47919678688049	-10.9407
7.49481678009033	-8.211004
7.51044678688049	-4.635962
7.52606678009033	-0.58461
7.54169678688049	3.504475
7.55732679367065	7.214762
7.57294678688049	10.18091
7.58857679367065	12.1601
7.60419678688049	13.06913
7.61982679367065	12.98138
7.63544678688049	12.11091
7.65107679367065	10.73711
7.66670680046082	9.122446
7.68232679367065	7.44565
7.69795680046082	5.834028
7.71357679367065	4.352493
7.72920680046082	3.073097
7.74482679367065	2.090656
7.76045680046082	1.50742
7.77608680725098	1.389816
7.79170680046082	1.736023
7.80733680725098	2.454954
7.82295680046082	3.363991
7.83858680725098	4.261896
7.85420680046082	4.927565
7.86983680725098	5.202679
7.88546681404114	4.999168
7.90108680725098	4.334852
7.91671681404114	3.293633
7.93233680725098	2.001503
7.94796681404114	0.6026459
7.96358680725098	-0.8077641
7.97921681404114	-2.17453
7.9948468208313	-3.507072
8.01046681404114	-4.867794
8.0260968208313	-6.345434
8.04171681404114	-7.980019
8.0573468208313	-9.683138
8.07296681404114	-11.1822
8.0885968208313	-12.06651
8.10422682762146	-11.9024
8.1198468208313	-10.43032
8.13547682762146	-7.691927
8.1510968208313	-4.054766
8.16672682762146	-0.09161568
8.1823468208313	3.608927
8.19797682762146	6.620607
8.21360683441162	8.747934
8.22922682762146	10.01618
8.24485683441162	10.57551
8.26047682762146	10.57689
8.27610683441162	10.11717
8.29172682762146	9.2376
8.30735683441162	7.954176
8.32298684120178	6.30905
8.33860683441162	4.413214
8.35423684120178	2.432678
8.36985683441162	0.5644798
8.38548684120178	-1.015717
8.40110683441162	-2.186449
8.41673684120178	-2.906723
8.43236684799194	-3.20944
8.44798684120178	-3.167555
8.46361684799194	-2.864243
8.47923684120178	-2.387838
8.49486684799194	-1.828678
8.51048684120178	-1.296413
8.52611684799194	-0.8944588
8.5417468547821	-0.7360287
8.55736684799194	-0.8820992
8.5729968547821	-1.345957
8.58861684799194	-2.095562
8.6042468547821	-3.062649
8.61986684799194	-4.184586
8.6354968547821	-5.424379
8.65112686157227	-6.753767
8.6667468547821	-8.121382
8.68237686157227	-9.435734
8.6979968547821	-10.51615
8.71362686157227	-11.13045
8.7292468547821	-11.02409
8.74487686157227	-9.993275
8.76050686836243	-7.964373
8.77612686157227	-5.025995
8.79175686836243	-1.437567
8.80737686157227	2.401197
8.82300686836243	6.048454
8.83862686157227	9.115873
8.85425686836243	11.32911
8.86988687515259	12.59021
8.88550686836243	12.93686
8.90113687515259	12.51971
8.91675686836243	11.52918
8.93238687515259	10.18286
8.94800686836243	8.661201
8.96363687515259	7.106049
8.97926688194275	5.606508
8.99488687515259	4.207956
9.01051688194275	2.926197
9.02613687515259	1.794115
9.04176688194275	0.8691235
9.05738687515259	0.2148285
9.07301688194275	-0.1335545
9.08864688873291	-0.2223492
9.10426688194275	-0.1881847
9.11989688873291	-0.1876926
9.13551688194275	-0.3302212
9.15114688873291	-0.640667
9.16676688194275	-1.06003
9.18239688873291	-1.510248
9.19802689552307	-1.976171
9.21364688873291	-2.530193
9.22927689552307	-3.299505
9.24489688873291	-4.367987
9.26052689552307	-5.728951
9.27615690231323	-7.251162
9.29177689552307	-8.718124
9.30740690231323	-9.910496
9.32302689552307	-10.65263
9.33865690231323	-10.8259
9.35427689552307	-10.33058
9.36990690231323	-9.071119
9.38553690910339	-6.981913
9.40115690231323	-4.084608
9.41678690910339	-0.5803413
9.43240690231323	3.150394
9.44803690910339	6.599192
9.46365690231323	9.296507
9.47928690910339	10.93935
9.49491691589355	11.48664
9.51053690910339	11.10022
9.52616691589355	10.04292
9.54178690910339	8.532717
9.55741691589355	6.689318
9.57303690910339	4.58951
9.58866691589355	2.357965
9.60429692268372	0.2112274
9.61991691589355	-1.566154
9.63554692268372	-2.723589
9.65116691589355	-3.169952
9.66679692268372	-3.035156
9.68241691589355	-2.590487
9.69804692268372	-2.150488
9.71367692947388	-1.949173
9.72929692268372	-2.070204
9.74492692947388	-2.458252
9.76054692268372	-2.997004
9.77617692947388	-3.574989
9.79179692268372	-4.155701
9.80742692947388	-4.786577
9.82305693626404	-5.558176
9.83867692947388	-6.577129
9.85430693626404	-7.870483
9.86992692947388	-9.361603
9.88555693626404	-10.84805
9.90117692947388	-12.03804
9.91680693626404	-12.60881
9.9324369430542	-12.31358
9.94805693626404	-11.04579
9.9636869430542	-8.861702
9.97930693626404	-5.970373
9.9949369430542	-2.65572
10.010556936264	0.7669411
10.0261869430542	3.995205
10.0418169498444	6.772579
10.0574369430542	8.891285
10.0730669498444	10.21363
10.0886869430542	10.68079
10.1043169498444	10.31994
10.1199369430542	9.251177
10.1355669498444	7.664875
10.1511969566345	5.813883
10.1668169498444	3.954906
10.1824469566345	2.318693
10.1980669498444	1.062321
10.2136969566345	0.2332611
10.2293169498444	-0.239502
10.2449469566345	-0.49403
10.2605769634247	-0.6878109
10.2761969566345	-0.9347858
10.2918269634247	-1.293114
10.3074469566345	-1.778145
10.3230769634247	-2.368874
10.3386969566345	-3.031873
10.3543269634247	-3.697364
10.3699569702148	-4.277452
10.3855769634247	-4.722957
10.4012069702148	-5.087126
10.4168269634247	-5.527948
10.4324569702148	-6.256813
10.4480769634247	-7.395603
10.4637069702148	-8.833377
10.479336977005	-10.22034
10.4949569702148	-11.03957
10.510586977005	-10.83346
10.5262069702148	-9.373821
10.541836977005	-6.764066
10.5574569702148	-3.367533
10.573086977005	0.3463354
10.5887169837952	3.960084
10.604336977005	7.191709
10.6199669837952	9.86178
10.635586977005	11.86312
10.6512169837952	13.09414
10.666836977005	13.49271
10.6824669837952	13.07031
10.6980969905853	11.96147
10.7137169837952	10.40754
10.7293469905853	8.695164
10.7449669837952	7.095321
10.7605969905853	5.780589
10.7762169837952	4.838478
10.7918469905853	4.241669
10.8074769973755	3.927596
10.8230969905853	3.789768
10.8387269973755	3.722361
10.8543469905853	3.613442
10.8699769973755	3.383302
10.8855969905853	3.001942
10.9012269973755	2.497306
10.9168570041656	1.954491
10.9324769973755	1.448763
10.9481070041656	1.009037
10.9637269973755	0.5665317
10.9793570041656	-0.04592824
10.9949769973755	-1.005185
11.0106070041656	-2.423689
11.0262370109558	-4.230881
11.0418570041656	-6.17997
11.0574870109558	-7.882195
11.0731070041656	-8.922896
11.0887370109558	-8.988235
11.1043570041656	-7.931701
11.1199870109558	-5.828218
11.1356167793274	-2.94899
11.1512370109558	0.3078442
11.1668667793274	3.497337
11.1824870109558	6.207854
11.1981167793274	8.150153
11.2137370109558	9.177221
11.2293667793274	9.29996
11.2449967861176	8.627934
11.2606167793274	7.334833
11.2762467861176	5.610813
11.2918667793274	3.639635
11.3074967861176	1.635615
11.3231167793274	-0.1833112
11.3387467861176	-1.621863
11.3543767929077	-2.540663
11.3699967861176	-2.923861
11.3856267929077	-2.880445
11.4012467861176	-2.584078
11.4168767929077	-2.228078
11.4324967861176	-1.96894
11.4481267929077	-1.881618
11.4637567996979	-1.981238
11.4793767929077	-2.263911
11.4950067996979	-2.69205
11.5106267929077	-3.245558
11.5262567996979	-3.908617
11.5418767929077	-4.67682
11.5575067996979	-5.57455
11.573136806488	-6.618818
11.5887567996979	-7.777161
11.604386806488	-8.917201
11.6200067996979	-9.775249
11.635636806488	-10.00949
11.6512668132782	-9.321512
11.666886806488	-7.567784
11.6825168132782	-4.853155
11.698136806488	-1.495673
11.7137668132782	2.070717
11.729386806488	5.416988
11.7450168132782	8.223941
11.7606468200684	10.32935
11.7762668132782	11.70431
11.7918968200684	12.37239
11.8075168132782	12.37269
11.8231468200684	11.74578
11.8387668132782	10.56199
11.8543968200684	8.964943
11.8700268268585	7.204174
11.8856468200684	5.567047
11.9012768268585	4.302933
11.9168968200684	3.549633
11.9325268268585	3.273023
11.9481468200684	3.29414
11.9637768268585	3.381169
11.9794068336487	3.334095
11.9950268268585	3.076227
12.0106568336487	2.661963
12.0262768268585	2.207933
12.0419068336487	1.825674
12.0575268268585	1.555253
12.0731568336487	1.336834
12.0887868404388	1.051403
12.1044068336487	0.5525203
12.1200368404388	-0.284077
12.1356568336487	-1.520832
12.1512868404388	-3.124274
12.1669068336487	-4.929713
12.1825368404388	-6.667626
12.198166847229	-7.996034
12.2137868404388	-8.595896
12.229416847229	-8.265512
12.2450368404388	-6.971627
12.260666847229	-4.872185
12.2762868404388	-2.231515
12.291916847229	0.6469185
12.3075468540192	3.486759
12.323166847229	6.064427
12.3387968540192	8.199326
12.354416847229	9.728399
12.3700468540192	10.52802
12.385666847229	10.56555
12.4012968540192	9.915207
12.4169268608093	8.763709
12.4325468540192	7.356588
12.4481768608093	5.907225
12.4637968540192	4.554521
12.4794268608093	3.377969
12.4950468540192	2.428374
12.5106768608093	1.765507
12.5263068675995	1.457159
12.5419268608093	1.507009
12.5575568675995	1.834836
12.5731768608093	2.242779
12.5888068675995	2.509084
12.6044268608093	2.44701
12.6200568675995	2.027649
12.6356868743896	1.352466
12.6513068675995	0.6047049
12.6669368743896	-0.05336905
12.6825568675995	-0.610496
12.6981868743896	-1.16812
12.7138068675995	-1.917097
12.7294368743896	-3.029766
12.7450668811798	-4.532732
12.7606868743896	-6.289098
12.7763168811798	-8.015791
12.7919368743896	-9.366374
12.8075668811798	-10.03491
12.8231868743896	-9.842345
12.8388168811798	-8.749472
12.85444688797	-6.8361
12.8700668811798	-4.287396
12.88569688797	-1.348535
12.9013168811798	1.706722
12.91694688797	4.569735
12.9325668811798	6.9616
12.94819688797	8.656855
12.9638268947601	9.532
12.97944688797	9.594781
12.9950768947601	8.982818
13.01069688797	7.894107
13.0263268947601	6.542131
13.04194688797	5.103183
13.0575768947601	3.701816
13.0732069015503	2.43469
13.0888268947601	1.389526
13.1044569015503	0.6336784
13.1200768947601	0.2116337
13.1357069015503	0.1105843
13.1513268947601	0.2663116
13.1669569015503	0.5761433
13.1825869083405	0.9127464
13.1982069015503	1.157864
13.2138369083405	1.223885
13.2294569015503	1.069557
13.2450869083405	0.6943798
13.2607069015503	0.149231
13.2763369083405	-0.5145855
13.2919669151306	-1.238829
13.3075869083405	-1.958603
13.3232169151306	-2.631411
13.3388369083405	-3.231941
13.3544669151306	-3.76635
13.3700869083405	-4.267904
13.3857169151306	-4.803633
13.4013469219208	-5.430536
13.4169669151306	-6.148537
13.4325969219208	-6.856468
13.4482169151306	-7.347631
13.4638469219208	-7.34256
13.4794669151306	-6.596464
13.4950969219208	-5.000488
13.5107269287109	-2.648537
13.5263469219208	0.1741238
13.5419769287109	3.080864
13.5575969219208	5.667332
13.5732269287109	7.629082
13.5888469219208	8.816841
13.6044769287109	9.233164
13.6201069355011	8.993816
13.6357269287109	8.256233
13.6513569355011	7.192123
13.6669769287109	5.929344
13.6826069355011	4.580299
13.6982269287109	3.239326
13.7138569355011	1.99807
13.7294869422913	0.95681
13.7451069355011	0.1819801
13.7607369422913	-0.2721939
13.7763569355011	-0.4016533
13.7919869422913	-0.2570724
13.8076169490814	0.04854965
13.8232369422913	0.3676147
13.8388669490814	0.5273132
13.8544869422913	0.4082985
13.8701169490814	-0.05370712
13.8857369422913	-0.8089981
13.9013669490814	-1.751026
13.9169969558716	-2.733833
13.9326169490814	-3.63504
13.9482469558716	-4.39629
13.9638669490814	-5.028824
13.9794969558716	-5.587994
13.9951169490814	-6.149708
14.0107469558716	-6.797298
14.0263769626617	-7.573017
14.0419969558716	-8.448349
14.0576269626617	-9.296249
14.0732469558716	-9.906982
14.0888769626617	-10.03423
14.1044969558716	-9.459862
14.1201269626617	-8.102028
14.1357569694519	-6.050831
14.1513769626617	-3.548489
14.1670069694519	-0.9081993
14.1826269626617	1.588291
14.1982569694519	3.742104
14.2138769626617	5.450489
14.2295069694519	6.674404
14.2451369762421	7.388477
14.2607569694519	7.575893
14.2763869762421	7.253029
14.2920069694519	6.485813
14.3076369762421	5.419819
14.3232569694519	4.249313
14.3388869762421	3.169895
14.3545169830322	2.331879
14.3701369762421	1.809357
14.3857669830322	1.594997
14.4013869762421	1.600544
14.4170169830322	1.716175
14.4326369762421	1.799538
14.4482669830322	1.735233
14.4638969898224	1.435841
14.4795169830322	0.8677483
14.4951469898224	0.07178497
14.5107669830322	-0.8675499
14.5263969898224	-1.838413
14.5420169830322	-2.752872
14.5576469898224	-3.545631
14.5732769966125	-4.20126
14.5888969898224	-4.741024
14.6045269966125	-5.225101
14.6201469898224	-5.740593
14.6357769966125	-6.396214
14.6513969898224	-7.277714
14.6670269966125	-8.416862
14.6826570034027	-9.715973
14.6982769966125	-10.95245
14.7139070034027	-11.81098
14.7295269966125	-11.95984
14.7451570034027	-11.16673
14.7607769966125	-9.380657
14.7764070034027	-6.753517
14.7920370101929	-3.642342
14.8076570034027	-0.5000381
14.8232870101929	2.229801
14.8389070034027	4.220474
14.8545370101929	5.349632
14.8701570034027	5.685509
14.8857870101929	5.449314
14.9014167785645	4.904037
14.9170370101929	4.282207
14.9326667785645	3.721519
14.9482870101929	3.260418
14.9639167785645	2.89753
14.9795370101929	2.589214
14.9951667785645	2.306908
15.0107967853546	1.999336
15.0264167785645	1.64307
15.0420467853546	1.224476
15.0576667785645	0.7772598
15.0732967853546	0.3557472
15.0889167785645	0.02755356
15.1045467853546	-0.1956902
15.1201767921448	-0.3724747
15.1357967853546	-0.6175423
15.1514267921448	-1.048336
15.1670467853546	-1.72567
15.1826767921448	-2.626259
15.1982967853546	-3.678158
15.2139267921448	-4.804478
15.2295567989349	-5.941998
15.2451767921448	-7.045601
15.2608067989349	-8.091938
15.2764267921448	-9.073647
15.2920567989349	-9.998577
15.3076767921448	-10.88926
15.3233067989349	-11.78076
15.3389368057251	-12.64562
15.3545567989349	-13.35569
15.3701868057251	-13.67201
15.3858067989349	-13.32893
15.4014368057251	-12.13626
15.4170567989349	-10.07305
15.4326868057251	-7.326965
15.4483168125153	-4.229004
15.4639368057251	-1.151119
15.4795668125153	1.598286
15.4951868057251	3.839474
15.5108168125153	5.514751
15.5264368057251	6.658295
15.5420668125153	7.352013
15.5576968193054	7.67403
15.5733168125153	7.673691
15.5889468193054	7.399986
15.6045668125153	6.901421
15.6201968193054	6.259026
15.6358168125153	5.600498
15.6514468193054	5.073643
15.6670768260956	4.780636
15.6826968193054	4.759117
15.6983268260956	4.940517
15.7139468193054	5.200813
15.7295768260956	5.416443
15.7451968193054	5.506191
15.7608268260956	5.46069
15.7764568328857	5.300446
15.7920768260956	5.039539
15.8077068328857	4.663773
15.8233268260956	4.150326
15.8389568328857	3.479019
15.8545768260956	2.684032
15.8702068328857	1.828308
15.8858368396759	0.9927139
15.9014568328857	0.2549477
15.9170868396759	-0.3315735
15.9327068328857	-0.7639198
15.9483368396759	-1.099617
15.9639568328857	-1.451061
15.9795868396759	-2.008186
15.9952168464661	-2.923508
16.0108368396759	-4.250282
16.0264668464661	-5.869118
16.0420868396759	-7.504604
16.0577168464661	-8.78812
16.0733368396759	-9.40089
16.0889668464661	-9.148853
16.1045968532562	-7.986435
16.1202168464661	-6.042286
16.1358468532562	-3.5331
16.1514668464661	-0.7320671
16.1670968532562	2.084595
16.1827168464661	4.684322
16.1983468532562	6.885479
16.2139768600464	8.5896
16.2295968532562	9.764191
16.2452268600464	10.41799
16.2608468532562	10.55808
16.2764768600464	10.21334
16.2920968532562	9.438442
16.3077268600464	8.378189
16.3233568668365	7.26511
16.3389768600464	6.347385
16.3546068668365	5.798695
16.3702268600464	5.623638
16.3858568668365	5.695305
16.4014768600464	5.7962
16.4171068668365	5.75573
16.4327368736267	5.50069
16.4483568668365	5.064198
16.4639868736267	4.546017
16.4796068668365	4.015015
16.4952368736267	3.486301
16.5108668804169	2.913364
16.5264868736267	2.266132
16.5421168804169	1.509254
16.5577368736267	0.6843147
16.5733668804169	-0.1641502
16.5889868736267	-0.9831924
16.6046168804169	-1.75687
16.620246887207	-2.505337
16.6358668804169	-3.255108
16.651496887207	-4.025093
16.6671168804169	-4.789852
16.682746887207	-5.510929
16.6983668804169	-6.138977
16.713996887207	-6.684822
16.7296268939972	-7.204998
16.745246887207	-7.785057
16.7608768939972	-8.489883
16.776496887207	-9.264755
16.7921268939972	-9.945175
16.807746887207	-10.27259
16.8233768939972	-9.98053
16.8390069007874	-8.896534
16.8546268939972	-7.011436
16.8702569007874	-4.497543
16.8858768939972	-1.638134
16.9015069007874	1.254719
16.9171268939972	3.910843
16.9327569007874	6.154469
16.9483869075775	7.876244
16.9640069007874	9.029236
16.9796369075775	9.596474
16.9952569007874	9.589088
17.0108869075775	9.062866
17.0265069007874	8.132664
17.0421369075775	6.975281
17.0577669143677	5.793362
17.0733869075775	4.763306
17.0890169143677	3.99781
17.1046369075775	3.529785
17.1202669143677	3.292706
17.1358869075775	3.175648
17.1515169143677	3.059406
17.1671469211578	2.852345
17.1827669143677	2.519131
17.1983969211578	2.087582
17.2140169143677	1.621876
17.2296469211578	1.218678
17.2452669143677	0.9449272
17.2608969211578	0.7929955
17.276526927948	0.6604958
17.2921469211578	0.3718758
17.307776927948	-0.2515488
17.3233969211578	-1.294281
17.339026927948	-2.688938
17.3546469211578	-4.228401
17.370276927948	-5.647713
17.3859069347382	-6.733955
17.401526927948	-7.418045
17.4171569347382	-7.780743
17.432776927948	-8.014412
17.4484069347382	-8.351387
17.464026927948	-8.956261
17.4796569347382	-9.860493
17.4952869415283	-10.95737
17.5109069347382	-11.99672
17.5265369415283	-12.68719
17.5421569347382	-12.74728
17.5577869415283	-12.01064
17.5734069347382	-10.44943
17.5890369415283	-8.18404
17.6046669483185	-5.415398
17.6202869415283	-2.380188
17.6359169483185	0.6835289
17.6515369415283	3.530125
17.6671669483185	5.91555
17.6827869415283	7.62487
17.6984169483185	8.536789
17.7140469551086	8.650936
17.7296669483185	8.127094
17.7452969551086	7.223557
17.7609169483185	6.209797
17.7765469551086	5.282024
17.7921669483185	4.534088
17.8077969551086	3.969551
17.8234269618988	3.563522
17.8390469551086	3.287392
17.8546769618988	3.117344
17.8702969551086	3.02599
17.8859269618988	2.975185
17.9015469551086	2.883495
17.9171769618988	2.686802
17.932806968689	2.351665
17.9484269618988	1.885746
17.964056968689	1.323406
17.9796769618988	0.7023544
17.995306968689	0.02983093
18.0109269618988	-0.6868057
18.026556968689	-1.456028
18.0421869754791	-2.260998
18.057806968689	-3.078571
18.0734369754791	-3.875454
18.089056968689	-4.643879
18.1046869754791	-5.408772
18.120306968689	-6.222153
18.1359369754791	-7.142887
18.1515669822693	-8.197174
18.1671869754791	-9.370758
18.1828169822693	-10.58388
18.1984369754791	-11.68324
18.2140669822693	-12.46035
18.2296869754791	-12.68068
18.2453169822693	-12.13002
18.2609469890594	-10.67426
18.2765669822693	-8.329933
18.2921969890594	-5.277889
18.3078169822693	-1.844578
18.3234469890594	1.58408
18.3390669822693	4.636513
18.3546969890594	7.009224
18.3703269958496	8.52932
18.3859469890594	9.166344
18.4015769958496	9.01281
18.4171969890594	8.282623
18.4328269958496	7.236397
18.4484469890594	6.134537
18.4640769958496	5.152184
18.4797070026398	4.375229
18.4953269958496	3.783817
18.5109570026398	3.34219
18.5265769958496	3.022842
18.5422070026398	2.824348
18.5578269958496	2.756378
18.5734570026398	2.78413
18.5890870094299	2.833561
18.6047070026398	2.814831
18.6203370094299	2.667038
18.6359570026398	2.379139
18.6515870094299	1.977959
18.6672170162201	1.47723
18.6828370094299	0.8373947
18.6984670162201	-0.009750366
18.7140870094299	-1.123848
18.7297170162201	-2.464695
18.7453370094299	-3.891819
18.7609670162201	-5.172001
18.7765967845917	-6.111977
18.7922170162201	-6.635075
18.8078467845917	-6.858425
18.8234670162201	-7.052052
18.8390967845917	-7.512775
18.8547170162201	-8.407448
18.8703467845917	-9.645828
18.8859767913818	-10.88387
18.9015967845917	-11.64006
18.9172267913818	-11.45355
18.9328467845917	-10.0845
18.9484767913818	-7.586172
18.9640967845917	-4.276009
18.9797267913818	-0.6061535
18.995356798172	2.957699
19.0109767913818	6.044102
19.026606798172	8.424963
19.0422267913818	9.996952
19.057856798172	10.77047
19.0734767913818	10.82622
19.089106798172	10.32135
19.1047368049622	9.44685
19.120356798172	8.417532
19.1359868049622	7.416986
19.151606798172	6.565086
19.1672368049622	5.901873
19.182856798172	5.372494
19.1984868049622	4.878153
19.2141168117523	4.317616
19.2297368049622	3.667212
19.2453668117523	2.989115
19.2609868049622	2.409431
19.2766168117523	2.047327
19.2922368049622	1.948498
19.3078668117523	2.036283
19.3234968185425	2.147774
19.3391168117523	2.108389
19.3547468185425	1.820675
19.3703668117523	1.298887
19.3859968185425	0.6551514
19.4016168117523	0.01659775
19.4172468185425	-0.5409164
19.4328768253326	-1.014482
19.4484968185425	-1.497293
19.4641268253326	-2.091738
19.4797468185425	-2.906855
19.4953768253326	-3.99218
19.5109968185425	-5.32633
19.5266268253326	-6.787304
19.5422568321228	-8.174381
19.5578768253326	-9.220144
19.5735068321228	-9.678225
19.5891268253326	-9.365221
19.6047568321228	-8.207653
19.6203768253326	-6.268986
19.6360068321228	-3.709036
19.651636838913	-0.763937
19.6672568321228	2.28661
19.682886838913	5.140517
19.6985068321228	7.511069
19.714136838913	9.18557
19.7297568321228	10.049
19.745386838913	10.12866
19.7610168457031	9.562543
19.776636838913	8.541574
19.7922668457031	7.258172
19.807886838913	5.853621
19.8235168457031	4.411973
19.839136838913	2.981395
19.8547668457031	1.604293
19.8703968524933	0.3108492
19.8860168457031	-0.8651314
19.9016468524933	-1.89007
19.9172668457031	-2.734444
19.9328968524933	-3.392078
19.9485168457031	-3.880759
19.9641468524933	-4.255302
19.9797768592834	-4.597383
19.9953968524933	-4.980989
20.0110268592834	-5.455991
20.0266468524933	-6.01126
20.0422768592834	-6.587187
20.0578968524933	-7.106839
20.0735268592834	-7.506633
20.0891568660736	-7.759821
20.1047768592834	-7.874012
20.1204068660736	-7.889294
20.1360268592834	-7.873358
20.1516568660736	-7.918694
20.1672768592834	-8.132566
20.1829068660736	-8.60598
20.1985368728638	-9.338465
20.2141568660736	-10.17481
20.2297868728638	-10.79908
20.2454068660736	-10.80206
20.2610368728638	-9.815965
20.2766568660736	-7.688184
20.2922868728638	-4.544379
20.3079168796539	-0.7728238
20.3235368728638	3.123497
20.3391668796539	6.673588
20.3547868728638	9.573057
20.3704168796539	11.69227
20.3860368728638	13.05311
20.4016668796539	13.75923
20.4172968864441	13.96125
20.4329168796539	13.79359
20.4485468864441	13.38677
20.4641668796539	12.85257
20.4797968864441	12.25518
20.4954168796539	11.62852
20.5110468864441	10.96948
20.5266768932343	10.29372
20.5422968864441	9.649193
20.5579268932343	9.113232
20.5735468864441	8.767952
20.5891768932343	8.632204
20.6047968864441	8.666914
20.6204268932343	8.773556
20.6360569000244	8.838737
20.6516768932343	8.764077
20.6673069000244	8.484133
20.6829268932343	7.937576
20.6985569000244	7.104355
20.7141768932343	5.995793
20.7298069000244	4.683572
20.7454369068146	3.303593
20.7610569000244	1.990284
20.7766869068146	0.8546028
20.7923069000244	-0.1050806
20.8079369068146	-0.9739189
20.8235569000244	-1.884199
20.8391869068146	-2.914664
20.8548169136047	-4.022803
20.8704369068146	-5.0212
20.8860669136047	-5.635405
20.9016869068146	-5.609634
20.9173169136047	-4.779532
20.9329469203949	-3.132988
20.9485669136047	-0.8185334
20.9641969203949	1.883499
20.9798169136047	4.640567
20.9954469203949	7.088308
21.0110669136047	8.923423
21.0266969203949	9.955433
21.0423269271851	10.12699
21.0579469203949	9.52072
21.0735769271851	8.335831
21.0891969203949	6.820415
21.1048269271851	5.18987
21.1204469203949	3.591042
21.1360769271851	2.080491
21.1517069339752	0.6629748
21.1673269271851	-0.6536837
21.1829569339752	-1.793274
21.1985769271851	-2.619848
21.2142069339752	-3.016059
21.2298269271851	-2.972
21.2454569339752	-2.625819
21.2610869407654	-2.25502
21.2767069339752	-2.151517
21.2923369407654	-2.478426
21.3079569339752	-3.209744
21.3235869407654	-4.171545
21.3392069339752	-5.129436
21.3548369407654	-5.949348
21.3704669475555	-6.615441
21.3860869407654	-7.207143
21.4017169475555	-7.809489
21.4173369407654	-8.449039
21.4329669475555	-9.076095
21.4485869407654	-9.623223
21.4642169475555	-10.04198
21.4798469543457	-10.30215
21.4954669475555	-10.36283
21.5110969543457	-10.12681
21.5267169475555	-9.44011
21.5423469543457	-8.162924
21.5579669475555	-6.256047
21.5735969543457	-3.867304
21.5892269611359	-1.312694
21.6048469543457	1.014903
21.6204769611359	2.778891
21.6360969543457	3.802926
21.6517269611359	4.112701
21.6673469543457	3.859432
21.6829769611359	3.242614
21.698606967926	2.416132
21.7142269611359	1.488645
21.729856967926	0.5418447
21.7454769611359	-0.31197
21.761106967926	-0.928212
21.7767269611359	-1.154337
21.792356967926	-0.925588
21.8079869747162	-0.2896218
21.823606967926	0.5813193
21.8392369747162	1.483934
21.854856967926	2.238552
21.8704869747162	2.757403
21.886106967926	3.047919
21.9017369747162	3.178165
21.9173669815063	3.231032
21.9329869747162	3.286208
21.9486169815063	3.376095
21.9642369747162	3.493649
21.9798669815063	3.588305
21.9954869747162	3.576109
22.0111169815063	3.367945
22.0267469882965	2.880616
22.0423669815063	2.048595
22.0579969882965	0.8393669
22.0736169815063	-0.7317306
22.0892469882965	-2.589347
22.1048669815063	-4.564999
22.1204969882965	-6.391027
22.1361269950867	-7.741617
22.1517469882965	-8.286201
22.1673769950867	-7.80698
22.1829969882965	-6.275949
22.1986269950867	-3.882304
22.2142469882965	-0.9899666
22.2298769950867	1.964628
22.2455070018768	4.583462
22.2611269950867	6.596734
22.2767570018768	7.893809
22.2923769950867	8.515606
22.3080070018768	8.628439
22.3236269950867	8.420405
22.3392570018768	8.046744
22.354887008667	7.581572
22.3705070018768	7.000788
22.386137008667	6.255127
22.4017570018768	5.313125
22.417387008667	4.215564
22.4330070018768	3.071552
22.448637008667	2.032007
22.4642670154572	1.22052
22.479887008667	0.6863124
22.4955170154572	0.4167681
22.511137008667	0.3412356
22.5267670154572	0.3897002
22.542387008667	0.4955673
22.5580170154572	0.5895021
22.5736467838287	0.5943105
22.5892670154572	0.4436591
22.6048967838287	0.107151
22.6205170154572	-0.4058185
22.6361467838287	-1.042594
22.6517670154572	-1.763144
22.6673967838287	-2.577233
22.6830267906189	-3.567883
22.6986467838287	-4.812017
22.7142767906189	-6.331557
22.7298967838287	-8.005202
22.7455267906189	-9.592999
22.7611467838287	-10.78693
22.7767767906189	-11.29499
22.7924067974091	-10.93251
22.8080267906189	-9.636453
22.8236567974091	-7.472962
22.8392767906189	-4.640504
22.8549067974091	-1.448876
22.8705267906189	1.709573
22.8861567974091	4.450218
22.9017868041992	6.479881
22.9174067974091	7.686874
22.9330368041992	8.117325
22.9486567974091	7.940431
22.9642868041992	7.330575
22.9799067974091	6.427792
22.9955368041992	5.328028
23.0111668109894	4.115078
23.0267868041992	2.912165
23.0424168109894	1.868181
23.0580368041992	1.101127
23.0736668109894	0.6272373
23.0892868041992	0.3598785
23.1049168109894	0.1509457
23.1205468177795	-0.1284981
23.1361668109894	-0.5260677
23.1517968177795	-1.001906
23.1674168109894	-1.480449
23.1830468177795	-1.91055
23.1986668109894	-2.288386
23.2142968177795	-2.662648
23.2299268245697	-3.089658
23.2455468177795	-3.605109
23.2611768245697	-4.218375
23.2767968177795	-4.924751
23.2924268245697	-5.728948
23.3080468177795	-6.65974
23.3236768245697	-7.742188
23.3393068313599	-8.937736
23.3549268245697	-10.10132
23.3705568313599	-10.96096
23.3861768245697	-11.19217
23.4018068313599	-10.49847
23.4174268245697	-8.774327
23.4330568313599	-6.157056
23.44868683815	-3.028056
23.4643068313599	0.116581
23.47993683815	2.817156
23.4955568313599	4.810761
23.51118683815	6.051889
23.5268168449402	6.672198
23.54243683815	6.860452
23.5580668449402	6.77275
23.57368683815	6.480787
23.5893168449402	5.984274
23.60493683815	5.285087
23.6205668449402	4.414375
23.6361968517303	3.449485
23.6518168449402	2.515651
23.6674468517303	1.727609
23.6830668449402	1.164279
23.6986968517303	0.8329935
23.7143168449402	0.6541626
23.7299468517303	0.488362
23.7455768585205	0.1911091
23.7611968517303	-0.3272271
23.7768268585205	-1.03696
23.7924468517303	-1.790543
23.8080768585205	-2.388921
23.8236968517303	-2.68881
23.8393268585205	-2.678141
23.8549568653107	-2.515525
23.8705768585205	-2.461615
23.8862068653107	-2.768201
23.9018268585205	-3.56852
23.9174568653107	-4.83757
23.9330768585205	-6.378467
23.9487068653107	-7.926213
23.9643368721008	-9.179236
23.9799568653107	-9.892756
23.9955868721008	-9.862574
24.0112068653107	-8.964293
24.0268368721008	-7.157834
24.0424568653107	-4.533961
24.0580868721008	-1.329746
24.073716878891	2.080582
24.0893368721008	5.246317
24.104966878891	7.758022
24.1205868721008	9.347908
24.136216878891	9.966714
24.1518368721008	9.775353
24.167466878891	9.058079
24.1830968856812	8.111715
24.198716878891	7.153081
24.2143468856812	6.283752
24.229966878891	5.524837
24.2455968856812	4.896112
24.261216878891	4.45145
24.2768468856812	4.252387
24.2924768924713	4.327433
24.3080968856812	4.626375
24.3237268924713	4.996651
24.3393468856812	5.240016
24.3549768924713	5.18492
24.3705968856812	4.749285
24.3862268924713	3.974442
24.4018568992615	2.978858
24.4174768924713	1.903854
24.4331068992615	0.8509035
24.4487268924713	-0.1167207
24.4643568992615	-0.9671521
24.4799768924713	-1.690222
24.4956068992615	-2.280776
24.5112369060516	-2.77628
24.5268568992615	-3.275881
24.5424869060516	-3.910318
24.5581068992615	-4.776525
24.5737369060516	-5.870894
24.5893568992615	-7.049181
24.6049869060516	-8.045347
24.6206169128418	-8.541768
24.6362369060516	-8.251854
24.6518669128418	-7.023568
24.6674869060516	-4.885153
24.6831169128418	-2.036539
24.6987369060516	1.173985
24.7143669128418	4.321522
24.729996919632	7.009631
24.7456169128418	8.930256
24.761246919632	9.960522
24.7768669128418	10.14612
24.792496919632	9.671988
24.8081169128418	8.779266
24.823746919632	7.686852
24.8393769264221	6.554511
24.854996919632	5.480186
24.8706269264221	4.542408
24.886246919632	3.824036
24.9018769264221	3.371637
24.917496919632	3.19286
24.9331269264221	3.218282
24.9487569332123	3.331618
24.9643769264221	3.41764
24.9800069332123	3.394546
24.9956269264221	3.239107
25.0112569332123	2.982838
25.0268769264221	2.661161
25.0425069332123	2.28987
25.0581369400024	1.865632
25.0737569332123	1.361521
25.0893869400024	0.7575264
25.1050069332123	0.05825949
25.1206369400024	-0.7121854
25.1362569332123	-1.514007
25.1518869400024	-2.311743
25.1675169467926	-3.100482
25.1831369400024	-3.90156
25.1987669467926	-4.771844
25.2143869400024	-5.747178
25.2300169467926	-6.774605
25.2456369400024	-7.707566
25.2612669467926	-8.291018
25.2768969535828	-8.244539
25.2925169467926	-7.376237
25.3081469535828	-5.688624
25.3237669467926	-3.383818
25.3393969535828	-0.7835524
25.3550169467926	1.768327
25.3706469535828	4.017701
25.3862769603729	5.828885
25.4018969535828	7.14661
25.4175269603729	7.944965
25.4331469535828	8.210361
25.4487769603729	7.942768
25.4643969535828	7.194584
25.4800269603729	6.115849
25.4956569671631	4.911846
25.5112769603729	3.803664
25.5269069671631	2.967277
25.5425269603729	2.454323
25.5581569671631	2.195489
25.5737769603729	2.046672
25.5894069671631	1.875201
25.6050369739532	1.636376
25.6206569671631	1.396088
25.6362869739532	1.277524
25.6519069671631	1.348493
25.6675369739532	1.552218
25.6831569671631	1.687516
25.6987869739532	1.491543
25.7144169807434	0.8100443
25.7300369739532	-0.3161173
25.7456669807434	-1.66063
25.7612869739532	-2.909585
25.7769169807434	-3.817903
25.7925469875336	-4.321669
25.8081669807434	-4.559242
25.8237969875336	-4.772188
25.8394169807434	-5.171371
25.8550469875336	-5.858022
25.8706669807434	-6.79204
25.8862969875336	-7.828608
25.9019269943237	-8.774118
25.9175469875336	-9.434751
25.9331769943237	-9.619061
25.9487969875336	-9.164374
25.9644269943237	-7.98025
25.9800469875336	-6.088074
25.9956769943237	-3.664436
26.0113070011139	-1.041713
26.0269269943237	1.408102
26.0425570011139	3.371211
26.0581769943237	4.68831
26.0738070011139	5.369746
26.0894269943237	5.517447
26.1050570011139	5.254698
26.1206870079041	4.655437
26.1363070011139	3.776175
26.1519370079041	2.704922
26.1675570011139	1.617521
26.1831870079041	0.7423944
26.1988070011139	0.2484312
26.2144370079041	0.1675377
26.2300670146942	0.3609695
26.2456870079041	0.5975714
26.2613170146942	0.6693611
26.2769370079041	0.4913673
26.2925670146942	0.1351194
26.3081870079041	-0.2485895
26.3238170146942	-0.5179758
26.3394467830658	-0.6261873
26.3550670146942	-0.6151114
26.3706967830658	-0.6090536
26.3863170146942	-0.7324305
26.4019467830658	-1.064163
26.4175670146942	-1.628856
26.4331967830658	-2.396566
26.448826789856	-3.288786
26.4644467830658	-4.232798
26.480076789856	-5.161674
26.4956967830658	-6.014579
26.511326789856	-6.777552
26.5269467830658	-7.440715
26.542576789856	-8.035503
26.5582067966461	-8.566528
26.573826789856	-8.995832
26.5894567966461	-9.215619
26.605076789856	-9.028996
26.6207067966461	-8.207374
26.636326789856	-6.567441
26.6519567966461	-4.098508
26.6675868034363	-0.982645
26.6832067966461	2.421258
26.6988368034363	5.692121
26.7144567966461	8.470037
26.7300868034363	10.53775
26.7457067966461	11.82565
26.7613368034363	12.37466
26.7769668102264	12.28453
26.7925868034363	11.68006
26.8082168102264	10.72483
26.8238368034363	9.608322
26.8394668102264	8.515041
26.8550868034363	7.606512
26.8707168102264	6.936154
26.8863468170166	6.484219
26.9019668102264	6.176556
26.9175968170166	5.94552
26.9332168102264	5.739345
26.9488468170166	5.563688
26.9644668102264	5.416272
26.9800968170166	5.257755
26.9957268238068	5.047605
27.0113468170166	4.752643
27.0269768238068	4.384364
27.0425968170166	3.959547
27.0582268238068	3.503562
27.0738468170166	2.983618
27.0894768238068	2.321383
27.1051068305969	1.461615
27.1207268238068	0.3789387
27.1363568305969	-0.8474483
27.1519768238068	-2.084497
27.1676068305969	-3.180464
27.1832268238068	-4.049599
27.1988568305969	-4.68255
27.2144868373871	-5.156143
27.2301068305969	-5.573809
27.2457368373871	-6.036736
27.2613568305969	-6.612434
27.2769868373871	-7.318581
27.2926068305969	-8.096117
27.3082368373871	-8.803978
27.3238668441772	-9.201077
27.3394868373871	-9.00498
27.3551168441772	-7.972914
27.3707368373871	-6.048096
27.3863668441772	-3.429977
27.4019868373871	-0.5424938
27.4176168441772	2.117588
27.4332468509674	4.14319
27.4488668441772	5.388199
27.4644968509674	5.972445
27.4801168441772	6.143328
27.4957468509674	6.127056
27.5113668441772	5.99029
27.5269968509674	5.677919
27.5426268577576	5.088951
27.5582468509674	4.237593
27.5738768577576	3.298038
27.5894968509674	2.524891
27.6051268577576	2.113655
27.6207468509674	2.080683
27.6363768577576	2.258307
27.6520068645477	2.396311
27.6676268577576	2.336031
27.6832568645477	2.074999
27.6988768577576	1.767162
27.7145068645477	1.587456
27.7301268577576	1.620155
27.7457568645477	1.799891
27.7613868713379	1.941601
27.7770068645477	1.825031
27.7926368713379	1.307354
27.8082568645477	0.3904076
27.8238868713379	-0.8112144
27.8395068645477	-2.11414
27.8551368713379	-3.325542
27.8707668781281	-4.311462
27.8863868713379	-5.024357
27.9020168781281	-5.475609
27.9176368713379	-5.706078
27.9332668781281	-5.792912
27.9488868713379	-5.827312
27.9645168781281	-5.902782
27.9801468849182	-6.137169
27.9957668781281	-6.643215
28.0113968849182	-7.470211
28.0270168781281	-8.566383
28.0426468849182	-9.732071
28.0582668781281	-10.67567
28.0738968849182	-11.08114
28.0895268917084	-10.70235
28.1051468849182	-9.457699
28.1207768917084	-7.424339
28.1363968849182	-4.828785
28.1520268917084	-1.962559
28.1676468849182	0.8549423
28.1832768917084	3.346249
28.1989068984985	5.297539
28.2145268917084	6.591461
28.2301568984985	7.212955
28.2457768917084	7.239807
28.2614068984985	6.818241
28.2770369052887	6.109383
28.2926568984985	5.250278
28.3082869052887	4.327671
28.3239068984985	3.404259
28.3395369052887	2.54335
28.3551568984985	1.839497
28.3707869052887	1.396404
28.3864169120789	1.279869
28.4020369052887	1.466892
28.4176669120789	1.844872
28.4332869052887	2.245701
28.4489169120789	2.507263
28.4645369052887	2.535713
28.4801669120789	2.347855
28.495796918869	2.006817
28.5114169120789	1.593945
28.527046918869	1.134048
28.5426669120789	0.6058998
28.558296918869	-0.04095459
28.5739169120789	-0.838932
28.589546918869	-1.76651
28.6051769256592	-2.767826
28.620796918869	-3.774509
28.6364269256592	-4.740471
28.652046918869	-5.62244
28.6676769256592	-6.415394
28.683296918869	-7.127464
28.6989269256592	-7.796307
28.7145569324493	-8.460907
28.7301769256592	-9.143021
28.7458069324493	-9.828255
28.7614269256592	-10.4256
28.7770569324493	-10.79362
28.7926769256592	-10.74227
28.8083069324493	-10.11499
28.8239369392395	-8.824017
28.8395569324493	-6.896725
28.8551869392395	-4.467018
28.8708069324493	-1.761013
28.8864369392395	0.9510689
28.9020569324493	3.40612
28.9176869392395	5.366154
28.9333169460297	6.665226
28.9489369392395	7.224266
28.9645669460297	7.064556
28.9801869392395	6.331562
28.9958169460297	5.247421
29.0114369392395	4.073704
29.0270669460297	3.03981
29.0426969528198	2.270699
29.0583169460297	1.793491
29.0739469528198	1.547192
29.0895669460297	1.462559
29.1051969528198	1.480091
29.1208169460297	1.587334
29.1364469528198	1.769043
29.15207695961	1.96693
29.1676969528198	2.093784
29.18332695961	2.041073
29.1989469528198	1.749039
29.21457695961	1.20813
29.2301969528198	0.4824677
29.24582695961	-0.3749428
29.2614569664001	-1.312332
29.27707695961	-2.302231
29.2927069664001	-3.307365
29.30832695961	-4.264446
29.3239569664001	-5.112862
29.33957695961	-5.828506
29.3552069664001	-6.471058
29.3708369731903	-7.146736
29.3864569664001	-7.991508
29.4020869731903	-9.060173
29.4177069664001	-10.27216
29.4333369731903	-11.40744
29.4489569664001	-12.16042
29.4645869731903	-12.23506
29.4802169799805	-11.42146
29.4958369731903	-9.677456
29.5114669799805	-7.131317
29.5270869731903	-4.075119
29.5427169799805	-0.8703041
29.5583369731903	2.104271
29.5739669799805	4.550789
29.5895969867706	6.308575
29.6052169799805	7.326874
29.6208469867706	7.654617
29.6364669799805	7.423655
29.6520969867706	6.787407
29.6677169799805	5.92902
29.6833469867706	5.026588
29.6989769935608	4.232328
29.7145969867706	3.632471
29.7302269935608	3.248543
29.7458469867706	3.040764
29.7614769935608	2.924473
29.7770969867706	2.84066
29.7927269935608	2.769764
29.808357000351	2.711926
29.8239769935608	2.665403
29.839607000351	2.594902
29.8552269935608	2.432842
29.870857000351	2.109797
29.8864769935608	1.582907
29.902107000351	0.8622017
29.9177370071411	0.00935173
29.933357000351	-0.9134007
29.9489870071411	-1.848135
29.964607000351	-2.761181
29.9802370071411	-3.649622
29.995857000351	-4.523788
30.0114870071411	-5.38805
30.0271170139313	-6.266064
30.0427370071411	-7.182537
30.0583670139313	-8.155743
30.0739870071411	-9.211658
30.0896170139313	-10.30873
30.1052370071411	-11.3226
30.1208670139313	-12.01535
30.1364967823029	-12.07719
30.1521170139313	-11.21349
30.1677467823029	-9.284604
30.1833670139313	-6.377307
30.1989967823029	-2.816248
30.2146170139313	0.9263029
30.2302467823029	4.36929
30.245876789093	7.174228
30.2614967823029	9.17694
30.277126789093	10.36094
30.2927467823029	10.81679
30.308376789093	10.65287
30.3239967823029	9.998528
30.339626789093	9.010881
30.3552567958832	7.880485
30.370876789093	6.815845
30.3865067958832	5.978372
30.402126789093	5.437525
30.4177567958832	5.155525
30.433376789093	5.047954
30.4490067958832	5.006946
30.4646368026733	4.972526
30.4802567958832	4.917311
30.4958868026733	4.82974
30.5115067958832	4.694673
30.5271368026733	4.48969
30.5427567958832	4.164539
30.5583868026733	3.688982
30.5740168094635	3.053309
30.5896368026733	2.25894
30.6052668094635	1.310511
30.6208868026733	0.2203312
30.6365168094635	-0.9714936
30.6521468162537	-2.181378
30.6677668094635	-3.281052
30.6833968162537	-4.150418
30.6990168094635	-4.758913
30.7146468162537	-5.193773
30.7302668094635	-5.673348
30.7458968162537	-6.411272
30.7615268230438	-7.495108
30.7771468162537	-8.783281
30.7927768230438	-9.907705
30.8083968162537	-10.4008
30.8240268230438	-9.87875
30.8396468162537	-8.185345
30.8552768230438	-5.454284
30.870906829834	-2.043933
30.8865268230438	1.595716
30.902156829834	5.03731
30.9177768230438	7.932294
30.933406829834	10.066
30.9490268230438	11.33842
30.964656829834	11.76642
30.9802868366241	11.48733
30.995906829834	10.72078
31.0115368366241	9.700673
31.027156829834	8.631533
31.0427868366241	7.618504
31.058406829834	6.691095
31.0740368366241	5.850338
31.0896668434143	5.140861
31.1052868366241	4.656145
31.1209168434143	4.494761
31.1365368366241	4.684887
31.1521668434143	5.130307
31.1677868366241	5.641333
31.1834168434143	6.025298
31.1990468502045	6.160476
31.2146668434143	6.036705
31.2302968502045	5.697013
31.2459168434143	5.178256
31.2615468502045	4.455217
31.2771668434143	3.484967
31.2927968502045	2.253764
31.3084268569946	0.8460131
31.3240468502045	-0.5657482
31.3396768569946	-1.816397
31.3552968502045	-2.846939
31.3709268569946	-3.755649
31.3865468502045	-4.729899
31.4021768569946	-5.937725
31.4178068637848	-7.402058
31.4334268569946	-8.969269
31.4490568637848	-10.34594
31.4646768569946	-11.1975
31.4803068637848	-11.26598
31.4959268569946	-10.41281
31.5115568637848	-8.651875
31.527186870575	-6.13906
31.5428068637848	-3.15246
31.558436870575	-0.0315485
31.5740568637848	2.868564
31.589686870575	5.262942
31.6053068637848	7.005198
31.620936870575	8.063275
31.6365668773651	8.519281
31.652186870575	8.468863
31.6678168773651	7.987902
31.683436870575	7.118014
31.6990668773651	5.937234
31.714686870575	4.60338
31.7303168773651	3.334575
31.7459468841553	2.358841
31.7615668773651	1.810428
31.7771968841553	1.689878
31.7928168773651	1.874021
31.8084468841553	2.20624
31.8240668773651	2.566566
31.8396968841553	2.905387
31.8553268909454	3.201447
31.8709468841553	3.399494
31.8865768909454	3.411744
31.9021968841553	3.102271
31.9178268909454	2.397659
31.9334468841553	1.330408
31.9490768909454	0.03622913
31.9647068977356	-1.299824
31.9803268909454	-2.525514
31.9959568977356	-3.562373
32.0115768909454	-4.431099
32.0272068977356	-5.196923
32.0428268909454	-5.939354
32.0584568977356	-6.707684
32.0740869045258	-7.53067
32.0897068977356	-8.370383
32.1053369045258	-9.098619
32.1209568977356	-9.499398
32.1365869045258	-9.296515
32.1522068977356	-8.246988
32.1678369045258	-6.240091
32.1834669113159	-3.410233
32.1990869045258	-0.1109352
32.2147169113159	3.191535
32.2303369045258	6.061122
32.2459669113159	8.197972
32.2615869045258	9.494263
32.2772169113159	9.98381
32.2928469181061	9.759028
32.3084669113159	8.951311
32.3240969181061	7.701956
32.3397169113159	6.196819
32.3553469181061	4.658974
32.3709669113159	3.300062
32.3865969181061	2.267692
32.4022269248962	1.597013
32.4178469181061	1.219647
32.4334769248962	1.01654
32.4490969181061	0.8839865
32.4647269248962	0.7610826
32.4803469181061	0.6049328
32.4959769248962	0.3973207
32.5116069316864	0.09665585
32.5272269248962	-0.310111
32.5428569316864	-0.8122883
32.5584769248962	-1.34974
32.5741069316864	-1.865883
32.5897269248962	-2.352942
32.6053569316864	-2.861147
32.6209869384766	-3.470157
32.6366069316864	-4.235703
32.6522369384766	-5.157196
32.6678569316864	-6.19507
32.6834869384766	-7.307638
32.6991069316864	-8.499514
32.7147369384766	-9.798909
32.7303669452667	-11.16204
32.7459869384766	-12.40504
32.7616169452667	-13.21068
32.7772369384766	-13.18531
32.7928669452667	-12.05541
32.8084869384766	-9.795099
32.8241169452667	-6.654358
32.8397469520569	-3.089995
32.8553669452667	0.4156609
32.8709969520569	3.480053
32.8866169452667	5.906429
32.9022469520569	7.645403
32.917876958847	8.729879
32.9334969520569	9.209219
32.949126958847	9.129456
32.9647469520569	8.591487
32.980376958847	7.728128
32.9959969520569	6.757937
33.011626958847	5.887653
33.0272569656372	5.260535
33.042876958847	4.884342
33.0585069656372	4.64224
33.074126958847	4.382989
33.0897569656372	4.001941
33.105376958847	3.528939
33.1210069656372	3.076864
33.1366369724274	2.785295
33.1522569656372	2.695315
33.1678869724274	2.711638
33.1835069656372	2.648347
33.1991369724274	2.312727
33.2147569656372	1.617135
33.2303869724274	0.5992651
33.2460169792175	-0.5907125
33.2616369724274	-1.809803
33.2772669792175	-2.97338
33.2928869724274	-4.080585
33.3085169792175	-5.177896
33.3241369724274	-6.27673
33.3397669792175	-7.351131
33.3553969860077	-8.312501
33.3710169792175	-9.09991
33.3866469860077	-9.688871
33.4022669792175	-10.08436
33.4178969860077	-10.2712
33.4335169792175	-10.15431
33.4491469860077	-9.581946
33.4647769927979	-8.363711
33.4803969860077	-6.416452
33.4960269927979	-3.817327
33.5116469860077	-0.8393602
33.5272769927979	2.131706
33.5428969860077	4.720213
33.5585269927979	6.657186
33.574156999588	7.840539
33.5897769927979	8.297997
33.605406999588	8.128634
33.6210269927979	7.468261
33.636656999588	6.488887
33.6522769927979	5.372481
33.667906999588	4.310533
33.6835370063782	3.472213
33.699156999588	2.943882
33.7147870063782	2.726197
33.730406999588	2.74379
33.7460370063782	2.889402
33.761656999588	3.097486
33.7772870063782	3.329094
33.7929170131683	3.567764
33.8085370063782	3.77552
33.8241670131683	3.893318
33.8397870063782	3.80467
33.8554170131683	3.441845
33.8710370063782	2.790615
33.8866670131683	1.923185
33.9022967815399	0.9556808
33.9179170131683	0.02153969
33.9335467815399	-0.7918644
33.9491670131683	-1.469723
33.9647967815399	-2.040859
33.9804170131683	-2.592251
33.9960467815399	-3.215519
34.0116767883301	-3.963421
34.0272967815399	-4.857851
34.0429267883301	-5.854431
34.0585467815399	-6.863533
34.0741767883301	-7.722864
34.0897967815399	-8.226372
34.1054267883301	-8.140236
34.1210567951202	-7.26454
34.1366767883301	-5.486435
34.1523067951202	-2.885229
34.1679267883301	0.2544498
34.1835567951202	3.489674
34.1991767883301	6.329788
34.2148067951202	8.397989
34.2304368019104	9.550062
34.2460567951202	9.869362
34.2616868019104	9.624348
34.2773067951202	9.111654
34.2929368019104	8.524128
34.3085567951202	7.930037
34.3241868019104	7.298918
34.3398168087006	6.572651
34.3554368019104	5.759529
34.3710668087006	4.954538
34.3866868019104	4.307737
34.4023168087006	3.96241
34.4179368019104	3.96175
34.4335668087006	4.224491
34.4491968154907	4.559139
34.4648168087006	4.754236
34.4804468154907	4.671484
34.4960668087006	4.275843
34.5116968154907	3.642229
34.5273168087006	2.86974
34.5429468154907	2.009408
34.5585768222809	1.040373
34.5741968154907	-0.08798885
34.5898268222809	-1.386616
34.6054468154907	-2.785883
34.6210768222809	-4.143841
34.6366968154907	-5.334442
34.6523268222809	-6.298366
34.667956829071	-7.112383
34.6835768222809	-7.924064
34.699206829071	-8.856075
34.7148268222809	-9.915201
34.730456829071	-10.92571
34.7460768222809	-11.60224
34.761706829071	-11.61618
34.7773368358612	-10.72953
34.792956829071	-8.898581
34.8085868358612	-6.291682
34.824206829071	-3.24797
34.8398368358612	-0.1656027
34.855456829071	2.6185
34.8710868358612	4.898716
34.8867168426514	6.590652
34.9023368358612	7.685301
34.9179668426514	8.189819
34.9335868358612	8.129499
34.9492168426514	7.559152
34.9648368358612	6.583641
34.9804668426514	5.389706
34.9960968494415	4.172523
35.0117168426514	3.088303
35.0273468494415	2.223031
35.0429668426514	1.580938
35.0585968494415	1.099837
35.0742168426514	0.7126551
35.0898468494415	0.3779001
35.1054768562317	0.06382084
35.1210968494415	-0.2253656
35.1367268562317	-0.4895706
35.1523468494415	-0.7140751
35.1679768562317	-0.9089994
35.1835968494415	-1.105821
35.1992268562317	-1.373458
35.2148568630219	-1.771859
35.2304768562317	-2.333535
35.2461068630219	-3.044807
35.2617268562317	-3.850185
35.2773568630219	-4.696715
35.2929768562317	-5.568381
35.3086068630219	-6.484594
35.324236869812	-7.491187
35.3398568630219	-8.621503
35.355486869812	-9.825446
35.3711068630219	-10.95809
35.386736869812	-11.78179
35.4023568630219	-11.986
35.417986869812	-11.29757
35.4336168766022	-9.551097
35.449236869812	-6.788303
35.4648668766022	-3.303126
35.480486869812	0.4462786
35.4961168766022	3.962402
35.5117468833923	6.845481
35.5273668766022	8.892732
35.5429968833923	10.10637
35.5586168766022	10.61393
35.5742468833923	10.58123
35.5898668766022	10.12151
35.6054968833923	9.326677
35.6211268901825	8.273736
35.6367468833923	7.061578
35.6523768901825	5.811795
35.6679968833923	4.651106
35.6836268901825	3.692646
35.6992468833923	3.002389
35.7148768901825	2.611501
35.7305068969727	2.483299
35.7461268901825	2.532399
35.7617568969727	2.639925
35.7773768901825	2.669182
35.7930068969727	2.542432
35.8086268901825	2.236032
35.8242568969727	1.778029
35.8398869037628	1.208162
35.8555068969727	0.5497303
35.8711369037628	-0.2003069
35.8867568969727	-1.038939
35.9023869037628	-1.920088
35.9180068969727	-2.800457
35.9336369037628	-3.616888
35.949266910553	-4.355715
35.9648869037628	-5.058976
35.980516910553	-5.806996
35.9961369037628	-6.68716
36.011766910553	-7.727942
36.0273869037628	-8.856313
36.043016910553	-9.874677
36.0586469173431	-10.51269
36.074266910553	-10.47027
36.0898969173431	-9.555427
36.105516910553	-7.745231
36.1211469173431	-5.211731
36.136766910553	-2.269458
36.1523969173431	0.7288876
36.1680269241333	3.470838
36.1836469173431	5.760996
36.1992769241333	7.503171
36.2148969173431	8.666503
36.2305269241333	9.254605
36.2461469173431	9.291246
36.2617769241333	8.856747
36.2774069309235	8.080785
36.2930269241333	7.142875
36.3086569309235	6.219087
36.3242769241333	5.443117
36.3399069309235	4.882426
36.3555269241333	4.539398
36.3711569309235	4.345738
36.3867869377136	4.21714
36.4024069309235	4.065809
36.4180369377136	3.841222
36.4336569309235	3.552023
36.4492869377136	3.254162
36.4649069309235	3.007202
36.4805369377136	2.828626
36.4961669445038	2.657814
36.5117869377136	2.366162
36.5274169445038	1.831907
36.5430369377136	0.9891157
36.5586669445038	-0.1359072
36.5742869377136	-1.431595
36.5899169445038	-2.780686
36.6055469512939	-4.070996
36.6211669445038	-5.229587
36.6367969512939	-6.228079
36.6524169445038	-7.064992
36.6680469512939	-7.771829
36.6836669445038	-8.420497
36.6992969512939	-9.090679
36.7149269580841	-9.833545
36.7305469512939	-10.61896
36.7461769580841	-11.3035
36.7617969512939	-11.63737
36.7774269580841	-11.35121
36.7930469512939	-10.23553
36.8086769580841	-8.242593
36.8243069648743	-5.505574
36.8399269580841	-2.322207
36.8555569648743	0.9550095
36.8711769580841	3.999241
36.8868069648743	6.581556
36.9024269580841	8.583266
36.9180569648743	9.97773
36.9336869716644	10.78332
36.9493069648743	11.03288
36.9649369716644	10.76838
36.9805569648743	10.04313
36.9961869716644	8.959703
37.0118069648743	7.674948
37.0274369716644	6.382765
37.0430669784546	5.281504
37.0586869716644	4.497925
37.0743169784546	4.074099
37.0899369716644	3.938199
37.1055669784546	3.942815
37.1211869716644	3.915532
37.1368169784546	3.736584
37.1524469852448	3.388795
37.1680669784546	2.932165
37.1836969852448	2.466816
37.1993169784546	2.048104
37.2149469852448	1.654877
37.2305669784546	1.194531
37.2461969852448	0.5672417
37.2618269920349	-0.2656322
37.2774469852448	-1.256256
37.2930769920349	-2.297776
37.3086969852448	-3.283279
37.3243269920349	-4.160905
37.3399469852448	-4.949835
37.3555769920349	-5.737005
37.3712069988251	-6.637572
37.3868269920349	-7.714787
37.4024569988251	-8.978745
37.4180769920349	-10.32466
37.4337069988251	-11.53702
37.4493269920349	-12.32459
37.4649569988251	-12.37562
37.4805870056152	-11.44198
37.4962069988251	-9.451057
37.5118370056152	-6.542595
37.5274569988251	-3.055984
37.5430870056152	0.5580525
37.5587069988251	3.860809
37.5743370056152	6.531352
37.5899670124054	8.414802
37.6055870056152	9.521328
37.6212170124054	9.959461
37.6368370056152	9.858471
37.6524670124054	9.367636
37.6680870056152	8.598611
37.6837170124054	7.661054
37.699346780777	6.654433
37.7149670124054	5.678483
37.730596780777	4.815764
37.7462170124054	4.113706
37.761846780777	3.579223
37.7774767875671	3.193284
37.793096780777	2.941392
37.8087267875671	2.799557
37.824346780777	2.742109
37.8399767875671	2.73115
37.855596780777	2.697997
37.8712267875671	2.555137
37.8868567943573	2.222376
37.9024767875671	1.646794
37.9181067943573	0.8130538
37.9337267875671	-0.2360786
37.9493567943573	-1.422642
37.9649767875671	-2.644953
37.9806067943573	-3.809871
37.9962368011475	-4.845288
38.0118567943573	-5.747967
38.0274868011475	-6.587981
38.0431067943573	-7.481675
38.0587368011475	-8.551541
38.0743567943573	-9.826239
38.0899868011475	-11.22572
38.1056168079376	-12.50835
38.1212368011475	-13.38502
38.1368668079376	-13.58333
38.1524868011475	-12.93088
38.1681168079376	-11.41206
38.1837368011475	-9.123681
38.1993668079376	-6.252822
38.2149968147278	-3.051578
38.2306168079376	0.1983009
38.2462468147278	3.188268
38.2618668079376	5.613497
38.2774968147278	7.242372
38.2931168079376	7.975955
38.3087468147278	7.864946
38.3243768215179	7.121377
38.3399968147278	6.057081
38.3556268215179	5.001814
38.3712468147278	4.20797
38.3868768215179	3.797072
38.4024968147278	3.746343
38.4181268215179	3.916577
38.4337568283081	4.14451
38.4493768215179	4.287402
38.4650068283081	4.304164
38.4806268215179	4.209682
38.4962568283081	4.051013
38.5118768215179	3.839872
38.5275068283081	3.514305
38.5431368350983	2.999693
38.5587568283081	2.250299
38.5743868350983	1.318364
38.5900068283081	0.3122901
38.6056368350983	-0.62271
38.6212568283081	-1.429489
38.6368868350983	-2.140961
38.6525168418884	-2.861121
38.6681368350983	-3.698305
38.6837668418884	-4.689713
38.6993868350983	-5.814742
38.7150168418884	-7.022398
38.7306368350983	-8.264519
38.7462668418884	-9.502481
38.7618968486786	-10.65849
38.7775168418884	-11.56069
38.7931468486786	-11.95119
38.8087668418884	-11.56376
38.8243968486786	-10.24535
38.8400168418884	-8.056361
38.8556468486786	-5.238171
38.8712768554688	-2.131867
38.8868968486786	0.9423461
38.9025268554688	3.768133
38.9181468486786	6.207603
38.9337768554688	8.17304
38.9493968486786	9.568693
38.9650268554688	10.30888
38.9806568622589	10.34027
38.9962768554688	9.716022
39.0119068622589	8.598507
39.0275268554688	7.232579
39.0431568622589	5.868988
39.0587768554688	4.696179
39.0744068622589	3.828495
39.0900368690491	3.271409
39.1056568622589	2.995888
39.1212868690491	2.943326
39.1369068622589	3.061296
39.1525368690491	3.292244
39.1681568622589	3.568163
39.1837868690491	3.807678
39.1994168758392	3.895269
39.2150368690491	3.731921
39.2306668758392	3.254174
39.2462868690491	2.473715
39.2619168758392	1.468792
39.2775368690491	0.3667367
39.2931668758392	-0.7107236
39.3087968826294	-1.667558
39.3244168758392	-2.477121
39.3400468826294	-3.173918
39.3556668758392	-3.833828
39.3712968826294	-4.56299
39.3869168758392	-5.466541
39.4025468826294	-6.603088
39.4181768894196	-7.947104
39.4337968826294	-9.331865
39.4494268894196	-10.47389
39.4650468826294	-11.00854
39.4806768894196	-10.62963
39.4962968826294	-9.160728
39.5119268894196	-6.653575
39.5275568962097	-3.365932
39.5431768894196	0.3000112
39.5588068962097	3.885097
39.5744268894196	7.005508
39.5900568962097	9.397315
39.6056768894196	10.95834
39.6213068962097	11.7206
39.6369369029999	11.81589
39.6525568962097	11.41551
39.6681869029999	10.69371
39.6838068962097	9.813503
39.6994369029999	8.867067
39.7150568962097	7.896824
39.7306869029999	6.891092
39.74631690979	5.835713
39.7619369029999	4.747404
39.77756690979	3.698971
39.7931869029999	2.798743
39.80881690979	2.155872
39.8244369029999	1.834911
39.84006690979	1.786024
39.8556969165802	1.894812
39.87131690979	1.98746
39.8869469165802	1.919312
39.90256690979	1.618942
39.9181969165802	1.073376
39.9338269233704	0.3261675
39.9494469165802	-0.576441
39.9650769233704	-1.601554
39.9806969165802	-2.763307
39.9963269233704	-4.04579
40.0119469165802	-5.430291
40.0275769233704	-6.860861
40.0432069301605	-8.280737
40.0588269233704	-9.657158
40.0744569301605	-10.98247
40.0900769233704	-12.21208
40.1057069301605	-13.20218
40.1213269233704	-13.70569
40.1369569301605	-13.39382
40.1525869369507	-12.02552
40.1682069301605	-9.570017
40.1838369369507	-6.26628
40.1994569301605	-2.568841
40.2150869369507	1.002827
40.2307069301605	4.017319
40.2463369369507	6.250413
40.2619669437408	7.678573
40.2775869369507	8.393312
40.2932169437408	8.524202
40.3088369369507	8.174547
40.3244669437408	7.437648
40.3400869369507	6.381442
40.3557169437408	5.116325
40.371346950531	3.770667
40.3869669437408	2.504824
40.402596950531	1.463193
40.4182169437408	0.7418666
40.433846950531	0.3374872
40.4494669437408	0.1648831
40.465096950531	0.08681202
40.4807269573212	-0.03326225
40.496346950531	-0.2702093
40.5119769573212	-0.6265256
40.527596950531	-1.065429
40.5432269573212	-1.564293
40.558846950531	-2.14433
40.5744769573212	-2.854415
40.5901069641113	-3.710832
40.6057269573212	-4.668239
40.6213569641113	-5.639993
40.6369769573212	-6.521295
40.6526069641113	-7.287346
40.6682269573212	-8.022731
40.6838569641113	-8.850852
40.6994869709015	-9.868338
40.7151069641113	-11.04793
40.7307369709015	-12.20191
40.7463569641113	-13.03877
40.7619869709015	-13.2489
40.7776069641113	-12.59929
40.7932369709015	-10.98562
40.8088669776917	-8.469511
40.8244869709015	-5.240343
40.8401169776917	-1.593431
40.8557369709015	2.096953
40.8713669776917	5.434193
40.8869869709015	8.064529
40.9026169776917	9.745645
40.9182469844818	10.4097
40.9338669776917	10.17988
40.9494969844818	9.317947
40.9651169776917	8.121502
40.9807469844818	6.840573
40.9963669776917	5.612762
41.0119969844818	4.492451
41.027626991272	3.498323
41.0432469844818	2.687671
41.058876991272	2.158586
41.0744969844818	2.005532
41.090126991272	2.222548
41.1057469844818	2.686025
41.121376991272	3.151934
41.1370069980621	3.374246
41.152626991272	3.230912
41.1682569980621	2.740034
41.183876991272	2.056085
41.1995069980621	1.34289
41.215126991272	0.6807895
41.2307569980621	0.04636621
41.2463870048523	-0.6510868
41.2620069980621	-1.477778
41.2776370048523	-2.44215
41.2932569980621	-3.490818
41.3088870048523	-4.599371
41.3245069980621	-5.801384
41.3401370048523	-7.164505
41.3557670116425	-8.685699
41.3713870048523	-10.20297
41.3870170116425	-11.40973
41.4026370048523	-11.90922
41.4182670116425	-11.38105
41.4338870048523	-9.690425
41.4495170116425	-6.938621
41.465146780014	-3.430492
41.4807670116425	0.415556
41.496396780014	4.188093
41.5120170116425	7.536576
41.527646780014	10.20651
41.5432670116425	12.05658
41.558896780014	13.0426
41.5745267868042	13.21345
41.590146780014	12.67694
41.6057767868042	11.6187
41.621396780014	10.2372
41.6370267868042	8.733569
41.652646780014	7.29106
41.6682767868042	6.022642
41.6839067935944	5.002918
41.6995267868042	4.258178
41.7151567935944	3.773855
41.7307767868042	3.522964
41.7464067935944	3.451699
41.7620267868042	3.477782
41.7776567935944	3.476598
41.7932868003845	3.314723
41.8089067935944	2.88106
41.8245368003845	2.143035
41.8401567935944	1.172587
41.8557868003845	0.1010923
41.8714067935944	-0.9317551
41.8870368003845	-1.85691
41.9026668071747	-2.700044
41.9182868003845	-3.560892
41.9339168071747	-4.555461
41.9495368003845	-5.752932
41.9651668071747	-7.139875
41.9807868003845	-8.653518
41.9964168071747	-10.19212
42.0120468139648	-11.63045
42.0276668071747	-12.81343
42.0432968139648	-13.56047
42.0589168071747	-13.63395
42.0745468139648	-12.80585
42.0901668071747	-10.95609
42.1057968139648	-8.130207
42.121426820755	-4.596498
42.1370468139648	-0.7663403
42.152676820755	2.908335
42.1682968139648	6.048271
42.183926820755	8.393959
42.1995468139648	9.85268
42.215176820755	10.42977
42.2308068275452	10.21402
42.246426820755	9.349324
42.2620568275452	8.046548
42.277676820755	6.584244
42.2933068275452	5.239
42.308926820755	4.23672
42.3245568275452	3.66181
42.3401868343353	3.457298
42.3558068275452	3.478816
42.3714368343353	3.566226
42.3870568275452	3.619788
42.4026868343353	3.609625
42.4183068275452	3.54139
42.4339368343353	3.397215
42.4495668411255	3.113749
42.4651868343353	2.6094
42.4808168411255	1.841915
42.4964368343353	0.8638649
42.5120668411255	-0.2117043
42.5276868343353	-1.247337
42.5433168411255	-2.153772
42.5589468479156	-2.922855
42.5745668411255	-3.626514
42.5901968479156	-4.36577
42.6058168411255	-5.22011
42.6214468479156	-6.245089
42.6370768547058	-7.441093
42.6526968479156	-8.766439
42.6683268547058	-10.10693
42.6839468479156	-11.2742
42.6995768547058	-12.01546
42.7151968479156	-12.07663
42.7308268547058	-11.2643
42.746456861496	-9.539736
42.7620768547058	-7.021374
42.777706861496	-3.938452
42.7933268547058	-0.587513
42.808956861496	2.745243
42.8245768547058	5.795841
42.840206861496	8.340553
42.8558368682861	10.2049
42.871456861496	11.29558
42.8870868682861	11.64382
42.902706861496	11.37733
42.9183368682861	10.6952
42.933956861496	9.773586
42.9495868682861	8.7202
42.9652168750763	7.58176
42.9808368682861	6.383451
42.9964668750763	5.204842
43.0120868682861	4.169424
43.0277168750763	3.409561
43.0433368682861	2.979765
43.0589668750763	2.818838
43.0745968818665	2.776615
43.0902168750763	2.675508
43.1058468818665	2.421577
43.1214668750763	2.008699
43.1370968818665	1.485439
43.1527168750763	0.8886261
43.1683468818665	0.2012119
43.1839768886566	-0.6268368
43.1995968818665	-1.62657
43.2152268886566	-2.765366
43.2308468818665	-3.947155
43.2464768886566	-5.059212
43.2620968818665	-6.036943
43.2777268886566	-6.93144
43.2933568954468	-7.863705
43.3089768886566	-8.947317
43.3246068954468	-10.1939
43.3402268886566	-11.45356
43.3558568954468	-12.409
43.3714768886566	-12.6699
43.3871068954468	-11.90161
43.4027369022369	-9.945099
43.4183568954468	-6.925945
43.4339869022369	-3.199802
43.4496068954468	0.7161503
43.4652369022369	4.313417
43.4808568954468	7.223282
43.4964869022369	9.284599
43.5121169090271	10.51135
43.5277369022369	11.02971
43.5433669090271	10.98846
43.5589869022369	10.49411
43.5746169090271	9.640516
43.5902369022369	8.493237
43.6058669090271	7.147629
43.6214969158173	5.733873
43.6371169090271	4.400276
43.6527469158173	3.280739
43.6683669090271	2.444494
43.6839969158173	1.917555
43.6996169090271	1.666357
43.7152469158173	1.637331
43.7308769226074	1.753864
43.7464969158173	1.930429
43.7621269226074	2.083799
43.7777469158173	2.134008
43.7933769226074	2.011135
43.8089969158173	1.648264
43.8246269226074	1.021107
43.8402569293976	0.1271534
43.8558769226074	-0.9785194
43.8715069293976	-2.216541
43.8871269226074	-3.502506
43.9027569293976	-4.771975
43.9183769226074	-6.016624
43.9340069293976	-7.251904
43.9496369361877	-8.511059
43.9652569293976	-9.769535
43.9808869361877	-10.91957
43.9965069293976	-11.73449
44.0121369361877	-11.94176
44.0277569293976	-11.28799
44.0433869361877	-9.624451
44.0590169429779	-6.995928
44.0746369361877	-3.618219
44.0902669429779	0.1570759
44.1058869361877	3.927603
44.1215169429779	7.304806
44.1371369361877	9.982275
44.1527669429779	11.76357
44.1683969497681	12.58128
44.1840169429779	12.51506
44.1996469497681	11.74953
44.2152669429779	10.54044
44.2308969497681	9.127087
44.2465169429779	7.691006
44.2621469497681	6.321617
44.2777769565582	5.050587
44.2933969497681	3.895075
44.3090269565582	2.903891
44.3246469497681	2.159267
44.3402769565582	1.736803
44.3558969497681	1.643272
44.3715269565582	1.795475
44.3871569633484	2.022039
44.4027769565582	2.142668
44.4184069633484	2.020992
44.4340269565582	1.62221
44.4496569633484	1.001648
44.4652769565582	0.2502995
44.4809069633484	-0.5640965
44.4965369701385	-1.430067
44.5121569633484	-2.372356
44.5277869701385	-3.413568
44.5434069633484	-4.526178
44.5590369701385	-5.649595
44.5746569633484	-6.716114
44.5902869701385	-7.716946
44.6059169769287	-8.717535
44.6215369701385	-9.804703
44.6371669769287	-11.00449
44.6527869701385	-12.18501
44.6684169769287	-13.03814
44.6840369701385	-13.16677
44.6996669769287	-12.24194
44.7152969837189	-10.14019
44.7309169769287	-7.001562
44.7465469837189	-3.177406
44.7621669769287	0.8706532
44.7777969837189	4.707556
44.793426990509	7.977869
44.8090469837189	10.42867
44.824676990509	11.90585
44.8402969837189	12.3725
44.855926990509	11.9185
44.8715469837189	10.76687
44.887176990509	9.241808
44.9028069972992	7.67869
44.918426990509	6.346813
44.9340569972992	5.390947
44.949676990509	4.810806
44.9653069972992	4.517044
44.980926990509	4.381119
44.9965569972992	4.317097
45.0121870040894	4.273384
45.0278069972992	4.242006
45.0434370040894	4.221428
45.0590569972992	4.174614
45.0746870040894	4.022884
45.0903069972992	3.666168
45.1059370040894	3.030273
45.1215670108795	2.127167
45.1371870040894	1.071026
45.1528170108795	0.01425362
45.1684370040894	-0.8955784
45.1840670108795	-1.604813
45.1996870040894	-2.184628
45.2153170108795	-2.78796
45.2309467792511	-3.582647
45.2465670108795	-4.669777
45.2621967792511	-6.056046
45.2778170108795	-7.647425
45.2934467792511	-9.288353
45.3090670108795	-10.78345
45.3246967792511	-11.90871
45.3403267860413	-12.44431
45.3559467792511	-12.17515
45.3715767860413	-10.95112
45.3871967792511	-8.720455
45.4028267860413	-5.619719
45.4184467792511	-1.961601
45.4340767860413	1.8095
45.4497067928314	5.224836
45.4653267860413	7.914101
45.4809567928314	9.70376
45.4965767860413	10.62612
45.5122067928314	10.85852
45.5278267860413	10.62071
45.5434567928314	10.07547
45.5590867996216	9.299702
45.5747067928314	8.31378
45.5903367996216	7.126326
45.6059567928314	5.785885
45.6215867996216	4.385323
45.6372067928314	3.055729
45.6528367996216	1.932333
45.6684668064117	1.123283
45.6840867996216	0.6871262
45.6997168064117	0.6304998
45.7153367996216	0.8943882
45.7309668064117	1.35155
45.7465867996216	1.842929
45.7622168064117	2.182074
45.7778468132019	2.207365
45.7934668064117	1.823647
45.8090968132019	1.031674
45.8247168064117	-0.07423973
45.8403468132019	-1.331233
45.8559668064117	-2.541052
45.8715968132019	-3.573385
45.8872268199921	-4.37196
45.9028468132019	-5.007174
45.9184768199921	-5.645735
45.9340968132019	-6.46085
45.9497268199921	-7.552155
45.9653468132019	-8.870589
45.9809768199921	-10.20999
45.9966068267822	-11.23909
46.0122268199921	-11.63322
46.0278568267822	-11.12852
46.0434768199921	-9.607917
46.0591068267822	-7.134985
46.0747268199921	-3.922579
46.0903568267822	-0.3112631
46.1059868335724	3.285681
46.1216068267822	6.476789
46.1372368335724	8.94244
46.1528568267822	10.48853
46.1684868335724	11.08807
46.1841068267822	10.84512
46.1997368335724	9.957573
46.2153668403625	8.670956
46.2309868335724	7.216023
46.2466168403625	5.780474
46.2622368335724	4.484837
46.2778668403625	3.38845
46.2934868335724	2.491198
46.3091168403625	1.787256
46.3247468471527	1.252195
46.3403668403625	0.8919749
46.3559968471527	0.7425809
46.3716168403625	0.8271894
46.3872468471527	1.111239
46.4028668403625	1.470773
46.4184968471527	1.689038
46.4341268539429	1.55222
46.4497468471527	0.9365621
46.4653768539429	-0.1122713
46.4809968471527	-1.413402
46.4966268539429	-2.711887
46.5122468471527	-3.824493
46.5278768539429	-4.734038
46.543506860733	-5.569094
46.5591268539429	-6.546931
46.574756860733	-7.850522
46.5903768539429	-9.525756
46.606006860733	-11.44473
46.6216268539429	-13.34211
46.637256860733	-14.8593
46.6528868675232	-15.64505
46.668506860733	-15.43625
46.6841368675232	-14.09267
46.699756860733	-11.64957
46.7153868675232	-8.323524
46.731006860733	-4.478503
46.7466368675232	-0.5458007
46.7622668743134	3.068364
46.7778868675232	6.06209
46.7935168743134	8.254148
46.8091368675232	9.598145
46.8247668743134	10.12489
46.8403868675232	9.925771
46.8560168743134	9.140141
46.8716468811035	7.952914
46.8872668743134	6.573881
46.9028968811035	5.194728
46.9185168743134	3.985219
46.9341468811035	3.02282
46.9497668743134	2.309391
46.9653968811035	1.817274
46.9810268878937	1.506149
46.9966468811035	1.356605
47.0122768878937	1.369285
47.0278968811035	1.519757
47.0435268878937	1.749434
47.0591468811035	1.940962
47.0747768878937	1.946469
47.0904068946838	1.642111
47.1060268878937	1.024914
47.1216568946838	0.1648371
47.1372768878937	-0.7971783
47.1529068946838	-1.737024
47.168536901474	-2.635021
47.1841568946838	-3.560684
47.199786901474	-4.639638
47.2154068946838	-5.948882
47.231036901474	-7.465996
47.2466568946838	-9.035055
47.262286901474	-10.43954
47.2779169082642	-11.44829
47.293536901474	-11.88829
47.3091669082642	-11.63132
47.324786901474	-10.59423
47.3404169082642	-8.723865
47.356036901474	-6.059795
47.3716669082642	-2.766689
47.3872969150543	0.8598027
47.4029169082642	4.397707
47.4185469150543	7.45264
47.4341669082642	9.736568
47.4497969150543	11.12363
47.4654169082642	11.66315
47.4810469150543	11.49536
47.4966769218445	10.7866
47.5122969150543	9.687975
47.5279269218445	8.308458
47.5435469150543	6.780486
47.5591769218445	5.255599
47.5747969150543	3.916394
47.5904269218445	2.891703
47.6060569286346	2.281205
47.6216769218445	2.077456
47.6373069286346	2.19104
47.6529269218445	2.487938
47.6685569286346	2.811114
47.6841769218445	3.015304
47.6998069286346	2.99914
47.7154369354248	2.694024
47.7310569286346	2.06606
47.7466869354248	1.142618
47.7623069286346	0.009708405
47.7779369354248	-1.170597
47.7935569286346	-2.226521
47.8091869354248	-3.033617
47.824816942215	-3.589334
47.8404369354248	-4.025534
47.856066942215	-4.548593
47.8716869354248	-5.373721
47.887316942215	-6.576981
47.9029369354248	-8.068626
47.918566942215	-9.560175
47.9341969490051	-10.67308
47.949816942215	-11.03207
47.9654469490051	-10.39059
47.981066942215	-8.699679
47.9966969490051	-6.097726
48.012316942215	-2.887909
48.0279469490051	0.5433834
48.0435769557953	3.79604
48.0591969490051	6.552852
48.0748269557953	8.62453
48.0904469490051	9.949791
48.1060769557953	10.56976
48.1216969490051	10.57023
48.1373269557953	10.04063
48.1529569625854	9.06166
48.1685769557953	7.732511
48.1842069625854	6.196188
48.1998269557953	4.651449
48.2154569625854	3.304571
48.2310769557953	2.317037
48.2467069625854	1.744593
48.2623369693756	1.527029
48.2779569625854	1.515826
48.2935869693756	1.554
48.3092069625854	1.542248
48.3248369693756	1.447253
48.3404569625854	1.281221
48.3560869693756	1.052808
48.3717169761658	0.7375674
48.3873369693756	0.2794709
48.4029669761658	-0.3760215
48.4185869693756	-1.247567
48.4342169761658	-2.304071
48.4498369693756	-3.4598
48.4654669761658	-4.647782
48.4810969829559	-5.841368
48.4967169761658	-7.064595
48.5123469829559	-8.33848
48.5279669761658	-9.614061
48.5435969829559	-10.74439
48.5592169761658	-11.45529
48.5748469829559	-11.45631
48.5904769897461	-10.52559
48.6060969829559	-8.619272
48.6217269897461	-5.90128
48.6373469829559	-2.692093
48.6529769897461	0.6307284
48.6685969829559	3.738355
48.6842269897461	6.399368
48.6998569965363	8.479278
48.7154769897461	9.879135
48.7311069965363	10.52797
48.7467269897461	10.3857
48.7623569965363	9.502323
48.7779769897461	8.039967
48.7936069965363	6.279106
48.8092370033264	4.536999
48.8248569965363	3.061948
48.8404870033264	1.974829
48.8561069965363	1.254573
48.8717370033264	0.8126035
48.8873569965363	0.5715858
48.9029870033264	0.506016
48.9186170101166	0.5895436
48.9342370033264	0.757966
48.9498670101166	0.8727276
48.9654870033264	0.7447662
48.9811170101166	0.2568605
48.9967370033264	-0.6064781
49.0123670101166	-1.74386
49.0279967784882	-3.005991
49.0436170101166	-4.276175
49.0592467784882	-5.547971
49.0748670101166	-6.877615
49.0904967784882	-8.345155
49.1061170101166	-9.9574
49.1217467784882	-11.6235
49.1373767852783	-13.16786
49.1529967784882	-14.3772
49.1686267852783	-15.03913
49.1842467784882	-14.94908
49.1998767852783	-13.9577
49.2154967784882	-11.99084
49.2311267852783	-9.119414
49.2467567920685	-5.571343
49.2623767852783	-1.703976
49.2780067920685	2.040644
49.2936267852783	5.256535
49.3092567920685	7.644734
49.3248767852783	9.095126
49.3405067920685	9.661367
49.3717567920685	8.939727
49.3873867988586	8.041799
49.4030067920685	6.92182
49.4186367988586	5.578498
49.4342567920685	4.026309
49.4498867988586	2.37435
49.4655168056488	0.8380535
49.4811367988586	-0.3132799
49.4967668056488	-0.8884897
49.5123867988586	-0.8899705
49.5280168056488	-0.5286956
49.5436367988586	-0.1214888
49.5592668056488	0.04687929
49.574896812439	-0.1287603
49.5905168056488	-0.6005473
49.606146812439	-1.219864
49.6217668056488	-1.87735
49.637396812439	-2.542817
49.6530268192291	-3.272523
49.668646812439	-4.15069
49.6842768192291	-5.232051
49.699896812439	-6.527126
49.7155268192291	-8.014743
49.731146812439	-9.639979
49.7467768192291	-11.31445
49.7624068260193	-12.85791
49.7780268192291	-13.98827
49.7936568260193	-14.36774
49.8092768192291	-13.71195
49.8249068260193	-11.88523
49.8405268192291	-8.984106
49.8561568260193	-5.30337
49.8717868328094	-1.253787
49.8874068260193	2.740502
49.9030368328094	6.312452
49.9186568260193	9.202366
49.9342868328094	11.247
49.9499068260193	12.38145
49.9655368328094	12.65021
49.9811668395996	12.1784
49.9967868328094	11.15293
50.0124168395996	9.786847
50.0280368328094	8.288998
50.0436668395996	6.821262
50.0592868328094	5.515291
50.0749168395996	4.461294
50.0905468463898	3.721247
50.1061668395996	3.336946
50.1217968463898	3.268499
50.1374168395996	3.419949
50.1530468463898	3.614794
50.1686668395996	3.672195
50.1842968463898	3.465086
50.1999268531799	2.962877
50.2155468463898	2.234589
50.2311768531799	1.396278
50.2467968463898	0.5528469
50.2624268531799	-0.2766933
50.2780468463898	-1.132963
50.2936768531799	-2.096199
50.3093068599701	-3.232038
50.3249268531799	-4.543186
50.3405568599701	-5.974354
50.3561768531799	-7.449335
50.3718068599701	-8.884956
50.3874268531799	-10.18923
50.4030568599701	-11.22565
50.4186868667603	-11.77191
50.4343068599701	-11.54594
50.4499368667603	-10.31255
50.4655568599701	-7.957268
50.4811868667603	-4.601061
50.4968068599701	-0.571806
50.5124368667603	3.651621
50.5280668735504	7.584702
50.5436868667603	10.82267
50.5593168735504	13.11383
50.5749368667603	14.3668
50.5905668735504	14.64088
50.6061868667603	14.10763
50.6218168735504	13.0215
50.6374468803406	11.66369
50.6530668735504	10.27405
50.6686968803406	9.004143
50.6843168735504	7.91477
50.6999468803406	6.983629
50.7155668735504	6.189331
50.7311968803406	5.535229
50.7468268871307	5.05106
50.7624468803406	4.757137
50.7780768871307	4.649992
50.7936968803406	4.656456
50.8093268871307	4.667824
50.8249468803406	4.571768
50.8405768871307	4.256023
50.8562068939209	3.652029
50.8718268871307	2.72814
50.8874568939209	1.509394
50.9030768871307	0.1114197
50.9187068939209	-1.300465
50.9343268871307	-2.53072
50.9499568939209	-3.462681
50.9655869007111	-4.105909
50.9812068939209	-4.640265
50.9968369007111	-5.323507
51.0124568939209	-6.377054
51.0280869007111	-7.865183
51.0437068939209	-9.628685
51.0593369007111	-11.33119
51.0749669075012	-12.55281
51.0905869007111	-12.91426
51.1062169075012	-12.14428
51.1218369007111	-10.15929
51.1374669075012	-7.06929
51.1530869007111	-3.171862
51.1687169075012	1.067072
51.1843469142914	5.151346
51.1999669075012	8.629782
51.2155969142914	11.22905
51.2312169075012	12.88796
51.2468469142914	13.70424
51.2624669075012	13.83567
51.2780969142914	13.4341
51.2937269210815	12.61259
51.3093469142914	11.46245
51.3249769210815	10.14085
51.3405969142914	8.829285
51.3562269210815	7.734531
51.3718469142914	7.002998
51.3874769210815	6.672598
51.4031069278717	6.666115
51.4187269210815	6.850889
51.4343569278717	7.087938
51.4499769210815	7.281612
51.4656069278717	7.411005
51.4812269210815	7.492022
51.4968569278717	7.539528
51.5124869346619	7.529781
51.5281069278717	7.373175
51.5437369346619	6.953608
51.5593569278717	6.172344
51.5749869346619	5.018364
51.5906069278717	3.607241
51.6062369346619	2.1835
51.621866941452	1.034578
51.6374869346619	0.3865089
51.653116941452	0.3116703
51.6687369346619	0.692481
51.684366941452	1.294342
51.6999869346619	1.851307
51.715616941452	2.170633
51.7312469482422	2.217656
51.746866941452	2.14782
51.7624969482422	2.275372
51.778116941452	2.983965
51.7937469482422	4.595889
51.809366941452	7.2338
51.8249969482422	10.75212
51.8406269550323	14.76558
51.8562469482422	18.79417
51.8718769550323	22.46625
51.8874969482422	25.70939
51.9031269550323	28.74552
51.9187569618225	31.96619
51.9343769550323	35.64907
51.9500069618225	39.74072
51.9656269550323	43.7926
51.9812569618225	47.1395
51.9968769550323	49.21095
52.0125069618225	49.79758
52.0281369686127	49.14176
52.0437569618225	47.86346
52.0593869686127	46.69366
52.0750069618225	46.15359
52.0906369686127	46.34355
52.1062569618225	46.88087
52.1218869686127	46.91807
52.1375169754028	45.34821
52.1531369686127	40.92322
52.1687669754028	32.59512
52.1843869686127	19.97029
52.2000169754028	3.568497
52.2156369686127	-15.1115
52.2312669754028	-33.89522
52.246896982193	-50.62132
52.2625169754028	-63.8292
52.278146982193	-73.29861
52.2937669754028	-80.12196
52.309396982193	-86.0912
52.3250169754028	-92.77226
52.340646982193	-100.6215
52.3562769889832	-108.7226
52.371896982193	-115.0838
52.3875269889832	-117.4106
52.403146982193	-114.0061
52.4187769889832	-104.4077
52.434396982193	-89.81583
52.4500269889832	-72.56612
52.4656569957733	-55.26245
52.4812769889832	-39.8964
52.4969069957733	-27.45367
52.5125269889832	-17.98733
52.5281569957733	-10.97054
52.5437769889832	-5.609818
52.5594069957733	-1.007927
52.5750370025635	3.3032
52.5906569957733	7.539017
52.6062870025635	11.96948
52.6219069957733	16.83292
52.6375370025635	22.06259
52.6531569957733	27.0302
52.6687870025635	30.66377
52.6844170093536	32.10893
52.7000370025635	31.20851
52.7156670093536	28.04047
52.7312870025635	22.98966
52.7469170093536	16.93956
52.7625370025635	11.20976
52.7781670093536	7.08918
52.7937970161438	5.306358
52.8094170093536	5.838219
52.8250470161438	8.051308
52.8406670093536	10.93384
52.8562970161438	12.53169
52.8719170093536	10.49339
52.8875470161438	3.236122
52.9031767845154	-9.451797
52.9187970161438	-26.76535
52.9344267845154	-47.66742
52.9500470161438	-71.37342
52.9656767845154	-97.30118
52.9812970161438	-118.8153
52.9969267845154	-128.7921
53.0125567913055	-123.4544
53.0281767845154	-104.5468
53.0438067913055	-77.34682
53.0594267845154	-46.97566
53.0750567913055	-16.79188
53.0906767845154	11.36372
53.1063067913055	36.67587
53.1219367980957	58.24356
53.1375567913055	76.93962
53.1531867980957	92.48359
53.1688067913055	104.2606
53.1844367980957	112.1582
53.2000567913055	116.5813
53.2156867980957	118.1372
53.2313168048859	117.5264
53.2469367980957	115.6216
53.2625668048859	111.9275
53.2781867980957	106.206
53.2938168048859	97.9002
53.3094367980957	86.84565
53.3250668048859	73.58645
53.340696811676	59.17789
53.3563168048859	44.64811
53.371946811676	30.76646
53.3875668048859	18.02264
53.403196811676	6.697525
53.4188168048859	-3.253143
53.434446811676	-12.42345
53.4500768184662	-21.28827
53.465696811676	-29.81615
53.4813268184662	-37.59733
53.496946811676	-44.10078
53.5125768184662	-48.88485
53.528196811676	-51.66574
53.5438268184662	-52.31607
53.5594568252563	-50.84144
53.5750768184662	-47.59574
53.5907068252563	-42.92126
53.6063268184662	-36.97076
53.6219568252563	-29.84469
53.6375768184662	-21.81919
53.6532068252563	-13.44233
53.6688368320465	-5.5233
53.6844568252563	1.1064
53.7000868320465	5.887062
53.7157068252563	8.538536
53.7313368320465	9.261215
53.7469568252563	8.685516
53.7625868320465	7.624603
53.7782168388367	6.733383
53.7938368320465	6.321899
53.8094668388367	6.357056
53.8250868320465	6.584518
53.8407168388367	6.79969
53.8563368320465	6.827461
53.8719668388367	6.567162
53.8875968456268	6.001114
53.9032168388367	5.09201
53.9188468456268	3.758728
53.9344668388367	1.89785
53.9500968456268	-0.6033173
53.9657168388367	-3.794189
53.9813468456268	-7.564049
53.996976852417	-11.64584
54.0125968456268	-15.62878
54.028226852417	-18.98965
54.0438468456268	-21.26665
54.059476852417	-22.15452
54.0750968456268	-21.51949
54.090726852417	-19.41637
54.1063568592072	-15.98053
54.121976852417	-11.39392
54.1376068592072	-5.875511
54.153226852417	0.2702103
54.1688568592072	6.615295
54.184476852417	12.62447
54.2001068592072	17.73334
54.2157368659973	21.50514
54.2313568592072	23.68784
54.2469868659973	24.25594
54.2626068592072	23.33316
54.2782368659973	21.1198
54.2938568592072	17.78789
54.3094868659973	13.48108
54.3251168727875	8.323242
54.3407368659973	2.46315
54.3563668727875	-3.8134
54.3719868659973	-10.09354
54.3876168727875	-15.79678
54.4032368659973	-20.28619
54.4188668727875	-22.98512
54.4344968795776	-23.56271
54.4501168727875	-22.02486
54.4657468795776	-18.77867
54.4813668727875	-14.53235
54.4969968795776	-10.12125
54.5126268863678	-6.304825
54.5282468795776	-3.58812
54.5438768863678	-2.141449
54.5594968795776	-1.865677
54.5751268863678	-2.486618
54.5907468795776	-3.686035
54.6063768863678	-5.171692
54.622006893158	-6.704025
54.6376268863678	-8.083069
54.653256893158	-9.140305
54.6688768863678	-9.738785
54.684506893158	-9.775925
54.7001268863678	-9.235474
54.715756893158	-8.182892
54.7313868999481	-6.785934
54.747006893158	-5.285645
54.7626368999481	-3.946106
54.778256893158	-2.999939
54.7938868999481	-2.607864
54.809506893158	-2.834747
54.8251368999481	-3.64267
54.8407669067383	-4.948959
54.8563868999481	-6.640884
54.8720169067383	-8.643982
54.8876368999481	-10.91052
54.9032669067383	-13.41199
54.9188868999481	-16.11568
54.9345169067383	-18.99854
54.9501469135284	-22.03325
54.9657669067383	-25.1801
54.9813969135284	-28.33368
54.9970169067383	-31.25729
55.0126469135284	-33.57439
55.0282669067383	-34.80029
55.0438969135284	-34.42058
55.0595269203186	-32.05399
55.0751469135284	-27.62581
55.0907769203186	-21.39603
55.1063969135284	-13.98521
55.1220269203186	-6.246429
55.1376469135284	0.9238434
55.1532769203186	6.796188
55.1689069271088	10.90448
55.1845269203186	13.10431
55.2001569271088	13.5235
55.2157769203186	12.4541
55.2314069271088	10.26828
55.2470269203186	7.325241
55.2626569271088	3.981232
55.2782869338989	0.5809937
55.2939069271088	-2.520218
55.3095369338989	-5.027969
55.3251569271088	-6.757599
55.3407869338989	-7.693939
55.3564069271088	-7.95948
55.3720369338989	-7.759094
55.3876669406891	-7.309563
55.4032869338989	-6.772095
55.4189169406891	-6.26268
55.4345369338989	-5.900246
55.4501669406891	-5.831825
55.4657869338989	-6.223045
55.4814169406891	-7.181839
55.4970469474792	-8.722572
55.5126669406891	-10.75452
55.5282969474792	-13.15502
55.5439169406891	-15.83291
55.5595469474792	-18.80902
55.5751669406891	-22.21423
55.5907969474792	-26.17482
55.6064269542694	-30.70012
55.6220469474792	-35.56174
55.6376769542694	-40.29656
55.6532969474792	-44.21692
55.6689269542694	-46.59283
55.6845469474792	-46.83489
55.7001769542694	-44.7059
55.7158069610596	-40.43523
55.7314269542694	-34.70488
55.7470569610596	-28.47676
55.7626769542694	-22.73162
55.7783069610596	-18.22623
55.7939269542694	-15.32652
55.8095569610596	-14.051
55.8251869678497	-14.18489
55.8408069610596	-15.47665
55.8564369678497	-17.70371
55.8720569610596	-20.63971
55.8876869678497	-23.99481
55.9033069610596	-27.29565
55.9189369678497	-29.9195
55.9345669746399	-31.22152
55.9501869678497	-30.71441
55.9658169746399	-28.22454
55.9814369678497	-23.92477
55.9970669746399	-18.23697
56.0126869678497	-11.69049
56.0283169746399	-4.796377
56.0439469814301	2.035809
56.0595669746399	8.487633
56.0751969814301	14.27582
56.0908169746399	19.15281
56.1064469814301	22.97723
56.1220669746399	25.73137
56.1376969814301	27.56578
56.1533269882202	28.67594
56.1689469814301	29.19907
56.1845769882202	29.16519
56.2001969814301	28.54844
56.2158269882202	27.42374
56.2314469814301	26.06895
56.2470769882202	25.02885
56.2627069950104	24.97879
56.2783269882202	26.52839
56.2939569950104	29.97271
56.3095769882202	35.18747
56.3252069950104	41.68336
56.3408269882202	48.69258
56.3564569950104	55.32713
56.3720870018005	60.71225
56.3877069950104	64.07413
56.4033370018005	64.81429
56.4189569950104	62.63007
56.4345870018005	57.58772
56.4502069950104	50.12923
56.4658370018005	41.00951
56.4814670085907	31.12581
56.4970870018005	21.3275
56.5127170085907	12.27621
56.5283370018005	4.375122
56.5439670085907	-2.219727
56.5595870018005	-7.513626
56.5752170085907	-11.58948
56.5908470153809	-14.57382
56.6064670085907	-16.61223
56.6220970153809	-17.92252
56.6377170085907	-18.72968
56.6533470153809	-19.27028
56.6689670085907	-19.72827
56.6845970153809	-20.2058
56.7002267837524	-20.75015
56.7158470153809	-21.36403
56.7314767837524	-22.07704
56.7470970153809	-22.95448
56.7627267837524	-24.09895
56.7783567905426	-25.59846
56.7939767837524	-27.46445
56.8096067905426	-29.5658
56.8252267837524	-31.56827
56.8408567905426	-32.93007
56.8564767837524	-32.97678
56.8721067905426	-31.06046
56.8877367973328	-26.75183
56.9033567905426	-20.00255
56.9189867973328	-11.19757
56.9346067905426	-1.103165
56.9502367973328	9.358841
56.9658567905426	19.29272
56.9814867973328	28.02934
56.9971168041229	35.15335
57.0127367973328	40.48183
57.0283668041229	43.9451
57.0439867973328	45.55017
57.0596168041229	45.3627
57.0752367973328	43.56387
57.0908668041229	40.4939
57.1064968109131	36.64026
57.1221168041229	32.5347
57.1377468109131	28.66354
57.1533668041229	25.33954
57.1689968109131	22.68222
57.1846168041229	20.6705
57.2002468109131	19.20123
57.2158768177032	18.14847
57.2314968109131	17.35385
57.2471268177032	16.64734
57.2627468109131	15.81332
57.2783768177032	14.6813
57.2939968109131	13.1698
57.3096268177032	11.35156
57.3252568244934	9.411041
57.3408768177032	7.560181
57.3565068244934	5.875916
57.3721268177032	4.253143
57.3877568244934	2.400635
57.4033768177032	-0.000793457
57.4190068244934	-3.105835
57.4346368312836	-6.787476
57.4502568244934	-10.57156
57.4658868312836	-13.73019
57.4815068244934	-15.43845
57.4971368312836	-15.00845
57.5127568244934	-12.0636
57.5283868312836	-6.672882
57.5440168380737	0.6166687
57.5596368312836	8.918945
57.5752668380737	17.1759
57.5908868312836	24.40359
57.6065168380737	29.88309
57.6221368312836	33.26306
57.6377668380737	34.54886
57.6533968448639	34.00748
57.6690168380737	32.01785
57.6846468448639	28.96005
57.7002668380737	25.19223
57.7158968448639	21.07239
57.7315168380737	16.96252
57.7471468448639	13.25153
57.7627768516541	10.25015
57.7783968448639	8.111786
57.7940268516541	6.782745
57.8096468448639	6.009125
57.8252768516541	5.397736
57.8408968448639	4.59082
57.8565268516541	3.342255
57.8721568584442	1.636566
57.8877768516541	-0.363678
57.9034068584442	-2.394531
57.9190268516541	-4.22583
57.9346568584442	-5.72345
57.9502768516541	-6.931915
57.9659068584442	-8.034454
57.9815368652344	-9.288605
57.9971568584442	-10.99503
58.0127868652344	-13.39352
58.0284068584442	-16.53403
58.0440368652344	-20.19821
58.0596568584442	-23.82007
58.0752868652344	-26.55392
58.0909168720245	-27.45929
58.1065368652344	-25.79727
58.1221668720245	-21.28363
58.1377868652344	-14.23206
58.1534168720245	-5.485992
58.1690368652344	3.816772
58.1846668720245	12.54343
58.2002968788147	19.80307
58.2159168720245	25.09085
58.2315468788147	28.25644
58.2471668720245	29.41095
58.2627968788147	28.83563
58.2784168720245	26.88538
58.2940468788147	23.97064
58.3096768856049	20.53729
58.3252968788147	17.03967
58.3409268856049	13.91315
58.3565468788147	11.46442
58.3721768856049	9.828918
58.3877968788147	8.923218
58.4034268856049	8.485535
58.419056892395	8.184113
58.4346768856049	7.752838
58.450306892395	7.038605
58.4659268856049	6.023712
58.481556892395	4.798462
58.4971768856049	3.445313
58.512806892395	2.031158
58.5284368991852	0.5570374
58.544056892395	-0.9963684
58.5596868991852	-2.679688
58.575306892395	-4.546326
58.5909368991852	-6.638184
58.606556892395	-8.980438
58.6221868991852	-11.53906
58.6378169059753	-14.17633
58.6534368991852	-16.61343
58.6690669059753	-18.43289
58.6846868991852	-19.13519
58.7003169059753	-18.26709
58.7159368991852	-15.55051
58.7315669059753	-10.97458
58.7471969127655	-4.85141
58.7628169059753	2.239075
58.7784469127655	9.535583
58.7940669059753	16.26578
58.8096969127655	21.76627
58.8253169059753	25.61301
58.8409469127655	27.6579
58.8565769195557	28.0163
58.8721969127655	27.0025
58.8878269195557	25.01315
58.9034469127655	22.44244
58.9190769195557	19.61469
58.9346969127655	16.79514
58.9503269195557	14.18967
58.9659569263458	11.96115
58.9815769195557	10.22412
58.9972069263458	8.982117
59.0128269195557	8.14978
59.0284569263458	7.53299
59.044086933136	6.929718
59.0597069263458	6.174286
59.075336933136	5.179321
59.0909569263458	3.926483
59.106586933136	2.422546
59.1222069263458	0.686554
59.137836933136	-1.276428
59.1534669399261	-3.454346
59.169086933136	-5.808594
59.1847169399261	-8.25531
59.200336933136	-10.67477
59.2159669399261	-12.96414
59.231586933136	-15.06265
59.2472169399261	-17.02838
59.2628469467163	-19.005
59.2784669399261	-21.18887
59.2940969467163	-23.66144
59.3097169399261	-26.28253
59.3253469467163	-28.60663
59.3409669399261	-29.95874
59.3565969467163	-29.62851
59.3722269535065	-27.13812
59.3878469467163	-22.41931
59.4034769535065	-15.86511
59.4190969467163	-8.213287
59.4347269535065	-0.2839355
59.4503469467163	7.174194
59.4659769535065	13.61319
59.4816069602966	18.69327
59.4972269535065	22.23962
59.5128569602966	24.23053
59.5284769535065	24.80026
59.5441069602966	24.21106
59.5597269535065	22.82889
59.5753569602966	21.04498
59.5909869670868	19.17337
59.6066069602966	17.40549
59.6222369670868	15.82242
59.6378569602966	14.42719
59.6534869670868	13.2229
59.6691069602966	12.19702
59.6847369670868	11.33661
59.700366973877	10.57458
59.7159869670868	9.822906
59.731616973877	8.982727
59.7472369670868	7.980743
59.762866973877	6.775269
59.7784869670868	5.328766
59.794116973877	3.584656
59.8097469806671	1.461182
59.825366973877	-1.092407
59.8409969806671	-4.036041
59.856616973877	-7.214417
59.8722469806671	-10.38109
59.887866973877	-13.27727
59.9034969806671	-15.70129
59.9191269874573	-17.60834
59.9347469806671	-19.08293
59.9503769874573	-20.32243
59.9659969806671	-21.53345
59.9816269874573	-22.88657
59.9972469806671	-24.42113
60.0128769874573	-26.03584
60.0285069942474	-27.44771
60.0441269874573	-28.21767
60.0597569942474	-27.83189
60.0753769874573	-25.81487
60.0910069942474	-21.89603
60.1066269874573	-16.13435
60.1222569942474	-8.949249
60.1378870010376	-1.091461
60.1535069942474	6.616531
60.1691370010376	13.42787
60.1847569942474	18.87146
60.2003870010376	22.76547
60.2160069942474	25.14496
60.2316370010376	26.12997
60.2472670078278	25.85509
60.2628870010376	24.48369
60.2785170078278	22.27301
60.2941370010376	19.62317
60.3097670078278	17.05154
60.3253870010376	15.0619
60.3410170078278	13.97653
60.3566470146179	13.83511
60.3722670078278	14.3911
60.3878970146179	15.24422
60.4035170078278	15.98538
60.4191470146179	16.33757
60.4347670078278	16.19252
60.4503970146179	15.58339
60.4660267829895	14.60716
60.4816470146179	13.36133
60.4972767829895	11.88742
60.5128970146179	10.18623
60.5285267829895	8.246033
60.5441470146179	6.079926
60.5597767829895	3.745773
60.5754067897797	1.357407
60.5910267829895	-0.9354401
60.6066567897797	-2.981232
60.6222767829895	-4.641342
60.6379067897797	-5.85379
60.6535267829895	-6.624817
60.6691567897797	-7.075699
60.6847867965698	-7.430466
60.7004067897797	-7.940933
60.7160367965698	-8.838669
60.7316567897797	-10.19992
60.7472867965698	-11.87383
60.7629067897797	-13.47299
60.7785367965698	-14.47017
60.79416680336	-14.36935
60.8097867965698	-12.91231
60.82541680336	-10.14293
60.8410367965698	-6.423569
60.85666680336	-2.320267
60.8722867965698	1.539429
60.88791680336	4.572708
60.9035468101501	6.32338
60.91916680336	6.478333
60.9347968101501	4.891907
60.95041680336	1.60495
60.9660468101501	-3.121506
60.98166680336	-8.805786
60.9972968101501	-14.79497
61.0129268169403	-20.36749
61.0285468101501	-24.86102
61.0441768169403	-27.7854
61.0597968101501	-28.91963
61.0754268169403	-28.27382
61.0910468101501	-26.05478
61.1066768169403	-22.55519
61.1223068237305	-18.08551
61.1379268169403	-12.95332
61.1535568237305	-7.449661
61.1691768169403	-1.864105
61.1848068237305	3.512558
61.2004268169403	8.397354
61.2160568237305	12.56912
61.2316868305206	15.83356
61.2473068237305	18.05168
61.2629368305206	19.10526
61.2785568237305	18.90723
61.2941868305206	17.44554
61.3098068237305	14.85283
61.3254368305206	11.42245
61.3410668373108	7.552673
61.3566868305206	3.653854
61.3723168373108	0.008346558
61.3879368305206	-3.303665
61.4035668373108	-6.370438
61.4191868305206	-9.299545
61.4348168373108	-12.11158
61.450446844101	-14.62176
61.4660668373108	-16.4818
61.481696844101	-17.26378
61.4973168373108	-16.60034
61.512946844101	-14.33553
61.5285668373108	-10.57176
61.544196844101	-5.657288
61.5598268508911	-0.1051788
61.575446844101	5.522881
61.5910768508911	10.73816
61.606696844101	15.16071
61.6223268508911	18.55913
61.6379568576813	20.79843
61.6535768508911	21.8159
61.6692068576813	21.61768
61.6848268508911	20.29156
61.7004568576813	18.05555
61.7160768508911	15.26904
61.7317068576813	12.37621
61.7473368644714	9.803062
61.7629568576813	7.836327
61.7785868644714	6.532188
61.7942068576813	5.719101
61.8098368644714	5.119293
61.8254568576813	4.458374
61.8410868644714	3.606094
61.8567168712616	2.59523
61.8723368644714	1.56501
61.8879668712616	0.6533356
61.9035868644714	-0.1178284
61.9192168712616	-0.8648605
61.9348368644714	-1.784737
61.9504668712616	-3.021263
61.9660968780518	-4.597076
61.9817168712616	-6.377876
61.9973468780518	-8.143394
62.0129668712616	-9.712227
62.0285968780518	-10.99857
62.0442168712616	-12.04128
62.0598468780518	-12.95277
62.0754768848419	-13.8801
62.0910968780518	-14.93347
62.1067268848419	-16.19625
62.1223468780518	-17.66544
62.1379768848419	-19.22543
62.1535968780518	-20.60271
62.1692268848419	-21.38516
62.1848568916321	-21.08721
62.2004768848419	-19.31007
62.2161068916321	-15.87787
62.2317268848419	-10.96297
62.2473568916321	-5.069603
62.2629768848419	1.12056
62.2786068916321	6.890854
62.2942368984222	11.65795
62.3098568916321	15.07415
62.3254868984222	17.01843
62.3411068916321	17.5568
62.3567368984222	16.8684
62.3723568916321	15.18573
62.3879868984222	12.76265
62.4036169052124	9.869976
62.4192368984222	6.767574
62.4348669052124	3.681335
62.4504868984222	0.8181076
62.4661169052124	-1.666962
62.4817368984222	-3.682491
62.4973669052124	-5.182167
62.5129969120026	-6.195297
62.5286169052124	-6.782646
62.5442469120026	-7.038334
62.5598669052124	-7.070339
62.5754969120026	-6.997177
62.5911169052124	-6.933678
62.6067469120026	-6.991016
62.6223769187927	-7.27438
62.6379969120026	-7.84404
62.6536269187927	-8.715878
62.6692469120026	-9.84568
62.6848769187927	-11.13426
62.7004969120026	-12.4849
62.7161269187927	-13.82895
62.7317569255829	-15.1811
62.7473769187927	-16.65283
62.7630069255829	-18.35881
62.7786269187927	-20.30225
62.7942569255829	-22.30312
62.8098769187927	-23.94595
62.8255069255829	-24.6987
62.841136932373	-24.04671
62.8567569255829	-21.6757
62.872386932373	-17.59006
62.8880069255829	-12.13825
62.903636932373	-5.896948
62.9192569255829	0.4723186
62.934886932373	6.356888
62.9505169391632	11.30904
62.966136932373	15.04873
62.9817669391632	17.44989
62.997386932373	18.51907
63.0130169391632	18.36112
63.028636932373	17.15899
63.0442669391632	15.16312
63.0598969459534	12.69309
63.0755169391632	10.06543
63.0911469459534	7.564741
63.1067669391632	5.401453
63.1223969459534	3.681435
63.1380169391632	2.440269
63.1536469459534	1.666389
63.1692769527435	1.326771
63.1848969459534	1.353651
63.2005269527435	1.605953
63.2161469459534	1.866245
63.2317769527435	1.87739
63.2473969459534	1.439711
63.2630269527435	0.4808636
63.2786569595337	-0.9135551
63.2942769527435	-2.568205
63.3099069595337	-4.32058
63.3255269527435	-6.085619
63.3411569595337	-7.908665
63.3567769527435	-9.87706
63.3724069595337	-12.05124
63.3880369663239	-14.4037
63.4036569595337	-16.79215
63.4192869663239	-18.99948
63.4349069595337	-20.74049
63.4505369663239	-21.69718
63.4661569595337	-21.55745
63.4817869663239	-20.05262
63.497416973114	-17.04765
63.5130369663239	-12.59732
63.528666973114	-7.002741
63.5442869663239	-0.7884178
63.559916973114	5.411814
63.5755369663239	10.97959
63.591166973114	15.42235
63.6067969799042	18.47329
63.622416973114	20.0604
63.6380469799042	20.29017
63.653666973114	19.37
63.6692969799042	17.55304
63.684916973114	15.1165
63.7005469799042	12.35107
63.7161769866943	9.570751
63.7317969799042	7.074036
63.7474269866943	5.112892
63.7630469799042	3.793013
63.7786769866943	3.085127
63.7942969799042	2.831186
63.8099269866943	2.811937
63.8255569934845	2.836477
63.8411769866943	2.784857
63.8568069934845	2.602596
63.8724269866943	2.279314
63.8880569934845	1.788809
63.9036870002747	1.074886
63.9193069934845	0.05104828
63.9349370002747	-1.347277
63.9505569934845	-3.131756
63.9661870002747	-5.211504
63.9818069934845	-7.418392
63.9974370002747	-9.590393
64.0130670070648	-11.62887
64.0286870002747	-13.55147
64.0443170070648	-15.45559
64.0599370002747	-17.41919
64.0755670070648	-19.35842
64.0911870002747	-20.96358
64.1068170070648	-21.72171
64.122447013855	-21.0873
64.1380670070648	-18.69064
64.153697013855	-14.50103
64.1693170070648	-8.874643
64.184947013855	-2.418488
64.2005670070648	4.159864
64.216197013855	10.21404
64.2318267822266	15.24702
64.247447013855	18.9289
64.2630767822266	21.07277
64.278697013855	21.635
64.2943267822266	20.74545
64.309947013855	18.72157
64.3255767822266	16.02868
64.3412067890167	13.16168
64.3568267822266	10.52181
64.3724567890167	8.355865
64.3880767822266	6.748137
64.4037067890167	5.660744
64.4193267822266	5.019714
64.4349567890167	4.728436
64.4505867958069	4.637753
64.4662067890167	4.558968
64.4818367958069	4.301998
64.4974567890167	3.722055
64.5130867958069	2.794453
64.5287067890167	1.603172
64.5443367958069	0.2781887
64.559966802597	-1.100899
64.5755867958069	-2.555655
64.591216802597	-4.182615
64.6068367958069	-6.036072
64.622466802597	-8.071808
64.6380867958069	-10.1837
64.653716802597	-12.2768
64.6693468093872	-14.39081
64.684966802597	-16.67361
64.7005968093872	-19.27951
64.716216802597	-22.16915
64.7318468093872	-25.00473
64.747466802597	-27.15549
64.7630968093872	-27.893
64.7787268161774	-26.63823
64.7943468093872	-23.1724
64.8099768161774	-17.68922
64.8255968093872	-10.77164
64.8412268161774	-3.201954
64.8568468093872	4.185749
64.8724768161774	10.67216
64.8881068229675	15.74939
64.9037268161774	19.1655
64.9193568229675	20.89291
64.9349768161774	21.0942
64.9506068229675	20.05415
64.9662268161774	18.08119
64.9818568229675	15.52674
64.9974868297577	12.7461
65.0131068229675	10.11648
65.0287368297577	7.980701
65.0443568229675	6.579971
65.0599868297577	5.985054
65.0756068229675	6.088348
65.0912368297577	6.643154
65.1068668365479	7.403297
65.1224868297577	8.166508
65.1381168365479	8.816734
65.1537368297577	9.273045
65.1693668365479	9.440006
65.1849868297577	9.18581
65.2006168365479	8.381229
65.216246843338	6.969852
65.2318668365479	5.048626
65.247496843338	2.83313
65.2631168365479	0.5955124
65.278746843338	-1.470661
65.2943668365479	-3.313061
65.309996843338	-5.003666
65.3256268501282	-6.696766
65.341246843338	-8.507107
65.3568768501282	-10.45588
65.372496843338	-12.43329
65.3881268501282	-14.21558
65.403746843338	-15.48348
65.4193768501282	-15.85199
65.4350068569183	-14.94032
65.4506268501282	-12.45512
65.4662568569183	-8.323967
65.4818768501282	-2.778046
65.4975068569183	3.616692
65.5131268501282	10.05359
65.5287568569183	15.7033
65.5443868637085	19.9052
65.5600068569183	22.33405
65.5756368637085	23.01607
65.5912568569183	22.23329
65.6068868637085	20.39153
65.6225068569183	17.88568
65.6381368637085	15.04557
65.6537668704987	12.13521
65.6693868637085	9.407021
65.6850168704987	7.07077
65.7006368637085	5.284782
65.7162668704987	4.096121
65.7318868637085	3.409189
65.7475168704987	3.029215
65.7631468772888	2.730299
65.7787668704987	2.340078
65.7943968772888	1.776304
65.8100168704987	1.04463
65.8256468772888	0.1678486
65.8412668704987	-0.8441792
65.8568968772888	-2.02169
65.872526884079	-3.418447
65.8881468772888	-5.073511
65.903776884079	-6.994843
65.9193968772888	-9.155567
65.935026884079	-11.47187
65.9506468772888	-13.84662
65.966276884079	-16.17939
65.9819068908691	-18.40162
65.997526884079	-20.49251
66.0131568908691	-22.48874
66.028776884079	-24.38884
66.0444068908691	-26.0962
66.060026884079	-27.3801
66.0756568908691	-27.8602
66.0912868976593	-27.14813
66.1069068908691	-24.94762
66.1225368976593	-21.16784
66.1381568908691	-15.95822
66.1537868976593	-9.698879
66.1694169044495	-2.912651
66.1850368976593	3.827785
66.2006669044495	9.968063
66.2162868976593	15.07843
66.2319169044495	18.90128
66.2475368976593	21.38959
66.2631669044495	22.69007
66.2787969112396	23.07552
66.2944169044495	22.84908
66.3100469112396	22.27271
66.3256669044495	21.52258
66.3412969112396	20.72649
66.3569169044495	19.97317
66.3725469112396	19.3545
66.3881769180298	18.93472
66.4037969112396	18.73076
66.4194269180298	18.68261
66.4350469112396	18.65998
66.4506769180298	18.52346
66.4662969112396	18.15383
66.4819269180298	17.49303
66.4975569248199	16.53268
66.5131769180298	15.28499
66.5288069248199	13.736
66.5444269180298	11.86767
66.5600569248199	9.66889
66.5756769180298	7.21295
66.5913069248199	4.62066
66.6069369316101	2.03279
66.6225569248199	-0.4784422
66.6381869316101	-2.974338
66.6538069248199	-5.627501
66.6694369316101	-8.628535
66.6850569248199	-12.04395
66.7006869316101	-15.68699
66.7163169384003	-19.10911
66.7319369316101	-21.69329
66.7475669384003	-22.82837
66.7631869316101	-22.09899
66.7788169384003	-19.40432
66.7944369316101	-15.01225
66.8100669384003	-9.480105
66.8256969451904	-3.557397
66.8413169384003	2.027257
66.8569469451904	6.6634
66.8725669384003	9.982819
66.8881969451904	11.86505
66.9038169384003	12.40449
66.9194469451904	11.82729
66.9350769519806	10.39067
66.9506969451904	8.344637
66.9663269519806	5.919888
66.9819469451904	3.332829
66.9975769519806	0.8131552
67.0131969451904	-1.412218
67.0288269519806	-3.159321
67.0444569587708	-4.318337
67.0600769519806	-4.906938
67.0757069587708	-5.030885
67.0913269519806	-4.848842
67.1069569587708	-4.524045
67.1225769519806	-4.179234
67.1382069587708	-3.905288
67.1538369655609	-3.776471
67.1694569587708	-3.857385
67.1850869655609	-4.191815
67.2007069587708	-4.782015
67.2163369655609	-5.576168
67.2319569587708	-6.478567
67.2475869655609	-7.414387
67.2632169723511	-8.36862
67.2788369655609	-9.41737
67.2944669723511	-10.67741
67.3100869655609	-12.23489
67.3257169723511	-14.06863
67.3413369655609	-15.9535
67.3569669723511	-17.48794
67.3725969791412	-18.16906
67.3882169723511	-17.53923
67.4038469791412	-15.31569
67.4194669723511	-11.50992
67.4350969791412	-6.453598
67.4507169723511	-0.727253
67.4663469791412	4.987167
67.4819769859314	10.07637
67.4975969791412	14.13641
67.5132269859314	17.01555
67.5288469791412	18.75052
67.5444769859314	19.47589
67.5600969791412	19.28482
67.5757269859314	18.24485
67.5913569927216	16.44092
67.6069769859314	14.05877
67.6226069927216	11.43903
67.6382269859314	8.973726
67.6538569927216	6.98218
67.6694769859314	5.605186
67.6851069927216	4.772785
67.7007369995117	4.273804
67.7163569927216	3.871082
67.7319869995117	3.381401
67.7476069927216	2.675659
67.7632369995117	1.651329
67.7788569927216	0.1686821
67.7944869995117	-1.914425
67.8101170063019	-4.679443
67.8257369995117	-8.097878
67.8413670063019	-11.97005
67.8569869995117	-16.02284
67.8726170063019	-19.9758
67.8882369995117	-23.63979
67.9038670063019	-26.90855
67.919497013092	-29.71274
67.9351170063019	-31.91283
67.950747013092	-33.20583
67.9663670063019	-33.13251
67.981997013092	-31.13719
67.9976170063019	-26.79676
68.013247013092	-20.00868
68.0288767814636	-11.15929
68.044497013092	-1.077213
68.0601267814636	9.111408
68.075747013092	18.31709
68.0913767814636	25.71184
68.106997013092	30.85732
68.1226267814636	33.71191
68.1382567882538	34.47281
68.1538767814636	33.42842
68.1695067882538	30.89593
68.1851267814636	27.20466
68.2007567882538	22.72981
68.2163767814636	17.8892
68.2320067882538	13.12549
68.2476367950439	8.819717
68.2632567882538	5.221745
68.2788867950439	2.428715
68.2945067882538	0.4038658
68.3101367950439	-0.9696846
68.3257567882538	-1.858063
68.3413867950439	-2.423264
68.3570168018341	-2.787018
68.3726367950439	-3.022896
68.3882668018341	-3.206917
68.4038867950439	-3.416946
68.4195168018341	-3.746201
68.4351367950439	-4.301826
68.4507668018341	-5.162163
68.4663968086243	-6.380787
68.4820168018341	-7.947895
68.4976468086243	-9.816254
68.5132668018341	-11.9074
68.5288968086243	-14.13183
68.5445168018341	-16.37325
68.5601468086243	-18.4408
68.5757768154144	-20.06206
68.5913968086243	-20.87043
68.6070268154144	-20.49259
68.6226468086243	-18.61554
68.6382768154144	-15.13218
68.6538968086243	-10.21284
68.6695268154144	-4.315975
68.6851568222046	1.884171
68.7007768154144	7.640747
68.7164068222046	12.31388
68.7320268154144	15.53603
68.7476568222046	17.26403
68.7632868289948	17.72202
68.7789068222046	17.26411
68.7945368289948	16.21885
68.8101568222046	14.80372
68.8257868289948	13.13492
68.8414068222046	11.31587
68.8570368289948	9.492134
68.8726668357849	7.870163
68.8882868289948	6.625584
68.9039168357849	5.829662
68.9195368289948	5.379799
68.9351668357849	5.065342
68.9507868289948	4.677197
68.9664168357849	4.094208
68.9820468425751	3.340042
68.9976668357849	2.51474
69.0132968425751	1.685081
69.0289168357849	0.8337097
69.0445468425751	-0.1675529
69.0601668357849	-1.444344
69.0757968425751	-3.071316
69.0914268493652	-4.979038
69.1070468425751	-7.010967
69.1226768493652	-9.008209
69.1382968425751	-10.90837
69.1539268493652	-12.79761
69.1695468425751	-14.82242
69.1851768493652	-17.05785
69.2008068561554	-19.37463
69.2164268493652	-21.38649
69.2320568561554	-22.53189
69.2476768493652	-22.26669
69.2633068561554	-20.23978
69.2789268493652	-16.44296
69.2945568561554	-11.21574
69.3101868629456	-5.12735
69.3258068561554	1.137688
69.3414368629456	6.949989
69.3570568561554	11.82545
69.3726868629456	15.46469
69.3883068561554	17.73124
69.4039368629456	18.65244
69.4195668697357	18.35378
69.4351868629456	17.02116
69.4508168697357	14.87801
69.4664368629456	12.1573
69.4820668697357	9.123184
69.4976868629456	6.077118
69.5133168697357	3.334953
69.5289468765259	1.187561
69.5445668697357	-0.1594772
69.5601968765259	-0.6710968
69.5758168697357	-0.4913025
69.5914468765259	0.08022308
69.6070668697357	0.6872406
69.6226968765259	1.01062
69.638326883316	0.8801575
69.6539468765259	0.2826691
69.669576883316	-0.6697693
69.6851968765259	-1.830246
69.700826883316	-3.114166
69.7164468765259	-4.532127
69.732076883316	-6.160797
69.7477068901062	-8.086136
69.763326883316	-10.31593
69.7789568901062	-12.77363
69.794576883316	-15.29562
69.8102068901062	-17.65424
69.825826883316	-19.60489
69.8414568901062	-20.88342
69.8570868968964	-21.19165
69.8727068901062	-20.23968
69.8883368968964	-17.81755
69.9039568901062	-13.89361
69.9195868968964	-8.71051
69.9352068901062	-2.793976
